,x,y,z,emg_1,emg_2,emg_3,emg_4,emg_5,emg_6,emg_7,emg_8,percentage,Source
1970-01-01 00:00:25.957984743,3.5024616718292236,-0.2860497534275055,0.7388312816619873,430.19787369,98.48386743,13.102896690000001,-34.86438813,1906.42072023,1204.43848473,-267.84418362,-1.1681225400000024,0.0,set #1
1970-01-01 00:00:25.968283233,3.5023460388183594,-0.28333690762519836,0.7388530969619751,427.10700045,338.53220037,39.281078459999996,-164.42970413999998,1076.18458233,1254.39878265,-325.81257384,-321.61217400000004,0.27932960893854747,set #1
1970-01-01 00:00:25.977712926,3.5022268295288086,-0.28049060702323914,0.7388976216316223,542.1998641800001,678.4448736,144.25994622,17.4995886,-744.8939456399999,648.7939177200001,153.71723718,173.85851574,0.5586592178770949,set #1
1970-01-01 00:00:25.987573204,3.502112627029419,-0.2774909436702728,0.7389954328536987,119.16497892,530.5821144,-356.9022522,-526.7677037999999,334.19412,667.82493492,-182.65843284,40.0272522,0.8379888268156424,set #1
1970-01-01 00:00:25.997267780,3.502000570297241,-0.2743287682533264,0.7391208410263062,813.5547108000001,1014.049803,60.651513,86.7180678,1742.2231554,346.3771584,159.0294342,196.8367518,1.1173184357541899,set #1
1970-01-01 00:00:26.008051214,3.5018515586853027,-0.2710554003715515,0.7392682433128357,293.78111958000005,595.70843904,161.73090726,-179.54010126,-1800.54891744,-85.57392792,49.36415562,-390.5324787,1.3966480446927374,set #1
1970-01-01 00:00:26.017880973,3.501762628555298,-0.2676407992839813,0.7394953966140747,-437.78448675,48.34119537,296.02846689,-62.19551325,-1852.63174122,-2643.4008276000004,303.3301986,-741.62784423,1.6759776536312847,set #1
1970-01-01 00:00:26.027375516,3.5016558170318604,-0.26414597034454346,0.7397730946540833,347.85368748,900.53736864,759.8509058400001,391.26468264,-2346.9894630000003,-3619.70792352,2385.3337232400004,-2579.82172344,1.9553072625698322,set #1
1970-01-01 00:00:26.037709054,3.501582384109497,-0.26051804423332214,0.7400720119476318,183.55670658,421.68939228,1609.71942612,617.33885382,-2178.04075944,-3943.83535104,667.45086096,-1327.2340497,2.2346368715083798,set #1
1970-01-01 00:00:26.047600088,3.5015180110931396,-0.2567079961299896,0.7404593825340271,-1297.5166152,-443.19536039999997,3334.09327368,-697.15288032,-1209.52220376,-4189.7149164,-586.3631124,-645.57036336,2.513966480446927,set #1
1970-01-01 00:00:26.057860431,3.5014562606811523,-0.25268861651420593,0.7409249544143677,-336.5165349,238.06805022,4066.77465753,-25.511204549999995,3359.90997576,-4352.16775188,-400.0935978,-273.38828361000003,2.793296089385475,set #1
1970-01-01 00:00:26.067584810,3.5014283657073975,-0.2485174983739853,0.741478443145752,349.8512901,450.95951940000003,3143.688834,456.7532151,1411.3426158,-3780.2196080999997,-348.8332497,-257.612238,3.072625698324022,set #1
1970-01-01 00:00:26.077391920,3.501499891281128,-0.24407359957695007,0.7421309947967529,512.4741336,543.8644224000001,1771.8689352,529.2590784,1732.1740176,-3321.8328,-916.8514992,37.2674952,3.3519553072625694,set #1
1970-01-01 00:00:26.087364015,3.5016205310821533,-0.239375501871109,0.7428529262542725,-21.9091158,-407.730219,837.1293957,-133.33760505,3337.1605605,-1194.5851827000001,-977.715219,-15.394522649999999,3.631284916201117,set #1
1970-01-01 00:00:26.097587165,3.501821279525757,-0.23431357741355896,0.7437160015106201,443.57676285,-296.45979090000003,269.93633355,-551.19744615,6388.9800000000005,896.2801243499999,-1805.0963502,189.3637005,3.9106145251396645,set #1
1970-01-01 00:00:26.108204660,3.5021042823791504,-0.22918380796909332,0.7446455359458923,524.0892696,-1025.029512,-1103.5052574000001,392.65068180000003,5956.364645400001,1634.366487,-1329.3196566000001,979.4110794000001,4.189944134078212,set #1
1970-01-01 00:00:26.117609796,3.50247859954834,-0.223885640501976,0.7456595301628113,433.34505396,-169.47061248,-2181.409308,754.76093472,5085.969621720001,3289.50228672,-423.41551668,199.28951172,4.4692737430167595,set #1
1970-01-01 00:00:26.128309545,3.5029103755950928,-0.21838095784187317,0.7467678189277649,676.45745115,489.7873071,-2558.4892242,962.1324511500001,2625.27525975,3999.588294,-91.76497395,531.31256685,4.748603351955307,set #1
1970-01-01 00:00:26.137399730,3.503413438796997,-0.21267929673194885,0.7479678392410278,-201.3466416,-161.843682,-3244.8987441,-30.6641088,2953.9933059,4581.3555606,-421.4847936,-194.028159,5.027932960893854,set #1
1970-01-01 00:00:26.147512731,3.503962516784668,-0.20678429305553436,0.7492803335189819,405.25332432,280.67675337000003,-3189.91330515,399.34334349,4739.44016325,5077.348576560001,-387.20136936,360.91841331,5.307262569832402,set #1
1970-01-01 00:00:26.158630666,3.5045359134674072,-0.20071029663085938,0.7506784796714783,-294.28768356,-488.4237898800001,-4138.48060158,-432.5102925,3807.74055714,5281.18149234,-225.41812098,-383.32762884,5.58659217877095,set #1
1970-01-01 00:00:26.167561588,3.5051581859588623,-0.19446110725402832,0.752201497554779,224.86455108,379.94763611999997,-3515.03283456,461.25292356,3442.6718742000003,2894.38808412,-291.54784308,633.16174116,5.865921787709497,set #1
1970-01-01 00:00:26.178152856,3.5057146549224854,-0.1880388706922531,0.7538051605224609,245.1589296,-589.78996752,-3938.07943464,-423.23282976,3784.80207456,1487.41481928,-494.97871176,624.02729688,6.145251396648044,set #1
1970-01-01 00:00:26.187546787,3.5062639713287354,-0.1815023571252823,0.7555208206176758,-302.56194423000005,-1160.90027313,-3603.5621559600004,-62.06096910000001,368.01199929,357.10962495,-487.92494556,250.05620016,6.4245810055865915,set #1
1970-01-01 00:00:26.197378215,3.506765842437744,-0.17483364045619965,0.7573096752166748,203.02222395,-750.86702145,-2956.70560965,676.7768865,65.92576769999994,330.6047355,-153.25169535,340.369692,6.703910614525139,set #1
1970-01-01 00:00:26.208826122,3.506988048553467,-0.1680569350719452,0.7590263485908508,349.60115112,-29.909099219999995,-788.29129704,1201.77179772,3169.84962294,1882.0168988399998,335.27967798000003,-7.08875544,6.983240223463687,set #1
1970-01-01 00:00:26.217253742,3.5074574947357178,-0.16123546659946442,0.7609639763832092,-780.59390058,-2161.30147194,-1087.31333724,105.66135918,2233.97753982,1836.31152432,-175.56463548,-351.19597968,7.262569832402234,set #1
1970-01-01 00:00:26.227425155,3.507897138595581,-0.15432779490947723,0.7630844116210938,-910.9501869000001,-1302.0965236499999,-1059.2289474,162.5465751,736.4816433000001,1746.85750005,-917.9827956,777.15099345,7.541899441340782,set #1
1970-01-01 00:00:26.237621603,3.5082664489746094,-0.14727210998535156,0.7652940154075623,-670.26672453,-87.59881299000001,-1376.6478878100002,-458.71111572,-6292.24022115,1972.77069366,-1034.12585718,-199.74239805000002,7.821229050279329,set #1
1970-01-01 00:00:26.247327861,3.5086328983306885,-0.13999450206756592,0.767692506313324,-658.3431309,367.67290755,-1463.08549257,-637.71998745,1826.2406229599999,1090.22946045,-673.2570475800001,502.09398876,8.100558659217876,set #1
1970-01-01 00:00:26.257864055,3.508892774581909,-0.1325525939464569,0.7702448964118958,78.46279935000001,968.28397185,-1022.3822934,45.73697310000001,3246.21786645,-1243.94812815,432.49393785,-523.63264785,8.379888268156424,set #1
1970-01-01 00:00:26.267512855,3.5090065002441406,-0.12488052994012833,0.7728931307792664,1164.1766409000002,4040.8596033000003,-676.2418728,205.7600337,3121.39870185,-766.9767417,299.848497,558.7736349,8.65921787709497,set #1
1970-01-01 00:00:26.277669725,3.509309768676758,-0.11702854931354523,0.7758063673973083,-288.10248675,5285.82378675,-1756.6332615,-743.2075462500001,543.1966995,-689.22483825,877.14224325,119.2059375,8.938547486033519,set #1
1970-01-01 00:00:26.287493047,3.509676694869995,-0.10886301100254059,0.7789104580879211,-1635.7282032,3270.7709724300003,-2017.50971409,-710.9480664000001,-548.3486513700001,-902.2656516900001,502.82179701,-540.91984089,9.217877094972067,set #1
1970-01-01 00:00:26.297409114,3.510089159011841,-0.10044840723276138,0.7822801470756531,1437.65271702,2500.12569066,-519.9653994600001,657.5210389800001,-1250.3655801,-196.68410892,894.90742536,-1395.73653336,9.497206703910614,set #1
1970-01-01 00:00:26.307767448,3.510615110397339,-0.09184150397777557,0.7859140634536743,-1256.40420984,1507.1543822400001,-934.15440768,111.66829128,-536.7529315200001,939.75661728,1065.13124016,407.44964832,9.776536312849162,set #1
1970-01-01 00:00:26.317620334,3.511183261871338,-0.08300650119781494,0.7898105382919312,-3617.39749644,-3646.84595496,-630.18942792,142.39539833999999,-3309.38272938,3255.06470562,1424.68072812,2235.6790318199996,10.055865921787708,set #1
1970-01-01 00:00:26.327633676,3.511747360229492,-0.07399480789899826,0.7938847541809082,-2069.71495848,1135.77313668,-334.63703208000004,74.49152099999999,-1426.64257632,3130.82727672,1588.9913364000001,1224.5378995199999,10.335195530726256,set #1
1970-01-01 00:00:26.337154684,3.5123672485351562,-0.06485802680253983,0.798288881778717,-963.09007236,2631.2416338,-183.93978564,-468.24085308,-1691.2379718,3046.8834786,771.47522244,439.02822756,10.614525139664805,set #1
1970-01-01 00:00:26.348106441,3.512953996658325,-0.05561552941799164,0.8029811382293701,-787.24052472,1321.04607921,538.03778418,-1782.24783555,-3135.01540482,2618.90130333,834.29366553,945.6541965,10.893854748603351,set #1
1970-01-01 00:00:26.358342466,3.513543128967285,-0.04627210646867752,0.8079246282577515,-2162.7503531400002,2098.70228256,-350.03038122,-829.24145694,-4175.52146622,1971.33509352,195.11482224,983.5771935600001,11.1731843575419,set #1
1970-01-01 00:00:26.367710647,3.5141117572784424,-0.03679855912923813,0.8131529092788696,-1706.00540448,2851.4576883,27.018786990000002,1338.35395551,-5588.145091230001,1877.97705927,449.0992116,-900.09783669,11.452513966480446,set #1
1970-01-01 00:00:26.377442417,3.514690399169922,-0.027157358825206757,0.8187417387962341,-1250.76640026,-293.25193794000006,-412.67710692,561.12238728,-2588.67476361,1425.87797469,606.38519721,476.35717701,11.731843575418994,set #1
1970-01-01 00:00:26.387557802,3.5152535438537598,-0.01741163432598114,0.8246404528617859,-1754.10708798,1831.0158165,-517.7969784000001,631.59397626,-1408.70619942,991.43853198,295.95146802,-840.18292254,12.011173184357542,set #1
1970-01-01 00:00:26.397386369,3.5158627033233643,-0.0075053684413433075,0.8308892250061035,791.52766875,-2878.96156509,554.95903827,1155.0091874099999,-379.48589484,1533.55895901,509.97673428,396.27404465999996,12.290502793296088,set #1
1970-01-01 00:00:26.408860025,3.5164849758148193,0.002627110108733177,0.8375599980354309,1274.8929765,-5061.54077325,-936.0961935,49.89388949999999,498.36224100000004,959.5172924999999,481.20119775,-358.18035825000004,12.569832402234637,set #1
1970-01-01 00:00:26.417462644,3.5171022415161133,0.012920292094349861,0.8445944786071777,1598.3409780000002,-5744.50155396,-939.24656124,-607.51906488,221.28685488,869.10714852,-388.64058324,80.21001456,12.849162011173183,set #1
1970-01-01 00:00:26.427229938,3.5177223682403564,0.02326994761824608,0.8520345687866211,3850.1134744799997,-901.46675814,126.09439361999999,-278.25435924000004,-2443.28982456,1044.46124328,91.88289474000001,489.83329901999997,13.128491620111731,set #1
1970-01-01 00:00:26.437919673,3.5183122158050537,0.03359869122505188,0.8598178029060364,4225.08734466,-1311.16302525,1400.6319748199999,-306.90806874,-660.35171943,57.97533183,-59.22351474000001,623.98163217,13.407821229050278,set #1
1970-01-01 00:00:26.448327598,3.5189762115478516,0.043883323669433594,0.8678780794143677,1473.3559643400001,-5095.41603636,-844.3918626000001,-1245.0394476,3336.46412892,540.49409466,-354.94523844,438.27409938,13.687150837988826,set #1
1970-01-01 00:00:26.458117780,3.519556760787964,0.05430169776082039,0.876266598701477,2315.7473352,-3415.1767182,392.84655540000006,467.54526780000003,3834.8999676,323.1460518,-352.2496224,253.97472360000003,13.966480446927374,set #1
1970-01-01 00:00:26.467253265,3.520263671875,0.06451178342103958,0.885004997253418,1970.06514315,-3663.96966975,-169.35915945,117.1713387,4810.2243462,803.6215629000001,-152.464533,411.4699875,14.24581005586592,set #1
1970-01-01 00:00:26.477412519,3.5209896564483643,0.07458680123090744,0.8941243886947632,695.6529426600001,-2938.00720824,-781.53673572,-547.74673863,2224.35414669,411.62384835,-953.46879888,291.69414378,14.525139664804469,set #1
1970-01-01 00:00:26.488099632,3.5216777324676514,0.08449652045965195,0.9034744501113892,2512.42691232,140.23849008000002,107.6122008,790.1718676800001,1241.06294832,-420.04671695999997,-298.45059504,695.9219904,14.804469273743015,set #1
1970-01-01 00:00:26.497550783,3.522216558456421,0.09440556168556213,0.9131888747215271,1796.66273124,332.47011369,-40.136758740000005,860.25440904,2587.57191225,-1316.90226876,-322.30612089,110.92297983,15.083798882681563,set #1
1970-01-01 00:00:26.507928190,3.5227274894714355,0.10398025810718536,0.9230870604515076,3655.0057323,2942.4408740999997,1239.6157644,2120.5552836,1726.9778760000002,-2480.8365309,224.783481,1222.059189,15.363128491620111,set #1
1970-01-01 00:00:26.517876443,3.5231168270111084,0.1134231835603714,0.9332507848739624,1951.0516779,1573.87348911,-248.07250026000003,17.57159625,2852.84402013,-5495.8402539300005,126.19785165,484.82501106,15.642458100558658,set #1
1970-01-01 00:00:26.527198848,3.523390054702759,0.12267608940601349,0.9436377286911011,2046.87902016,379.3064496,-147.99356832,-19.082207040000014,2097.01041888,-6244.248391680001,139.62844896000001,-79.24134816,15.921787709497206,set #1
1970-01-01 00:00:26.537164745,3.5233116149902344,0.13170389831066132,0.9541898965835571,4258.75097505,536.5434048,1507.2373212,2038.9400577,2034.8725605000002,-6295.171248600001,382.7677035,170.80849695,16.201117318435752,set #1
1970-01-01 00:00:26.547371206,3.5234556198120117,0.14037375152111053,0.9648460745811462,3386.25419262,-671.1119103000001,847.40781996,1286.8253658,2296.2125191200003,-5175.25773726,372.03218442,418.41866742,16.480446927374302,set #1
1970-01-01 00:00:26.558341798,3.5235400199890137,0.14882205426692963,0.9756736159324646,137.59235334000005,-3245.7252672,-898.71778464,-198.51615654000003,1427.78681448,-1431.95159952,-178.11833364,-844.18892766,16.75977653631285,set #1
1970-01-01 00:00:26.567421255,3.5235111713409424,0.15706947445869446,0.9865929484367371,-1252.70591355,-2592.7725447000003,-644.7452777999999,2.796518400000025,1925.6804229,-287.60850495,56.76293414999999,-106.2440496,17.039106145251395,set #1
1970-01-01 00:00:26.577103195,3.5233852863311768,0.1651003062725067,0.9976922273635864,-1159.64695275,-1333.04771145,118.13512425,332.2297992,806.5784356500001,1844.7504855,210.68486009999998,-233.46033165,17.31843575418994,set #1
1970-01-01 00:00:26.587601480,3.523214817047119,0.17285306751728058,1.0089209079742432,-961.2184452,696.7156404,948.139842,984.1851552,1162.4910336,3022.1178312,708.2729472000001,129.0153696,17.59776536312849,set #1
1970-01-01 00:00:26.597620544,3.5231006145477295,0.1803245097398758,1.020209550857544,-2887.35278208,-787.4039721600001,303.52704096,143.74943231999998,278.4429648,3680.22696288,40.57719744,-400.25744928,17.877094972067038,set #1
1970-01-01 00:00:26.608595666,3.522958517074585,0.1876835823059082,1.031569480895996,-3611.69128086,-2380.761981,142.42151898,-380.70740838,-1969.13268552,3146.73108048,-227.43657222,-6.503014440000001,18.156424581005584,set #1
1970-01-01 00:00:26.617695150,3.5227925777435303,0.1948091983795166,1.0431404113769531,-3440.686236,-1408.0923090000001,-334.547928,-860.0706855000001,-1657.685094,2504.5246005,320.1075735,347.363913,18.435754189944134,set #1
1970-01-01 00:00:26.627280054,3.5224626064300537,0.20180758833885193,1.0548553466796875,-866.26751328,118.9630962,428.56391838,-60.17008998000001,-1894.4774253599999,2375.4324937200004,379.53032286,594.56221266,18.71508379888268,set #1
1970-01-01 00:00:26.637420711,3.5219929218292236,0.208425372838974,1.0667638778686523,-518.55726429,-1026.5959368600002,611.66086644,125.74738839,-2532.13147239,2975.06997801,-62.815197510000004,-40.50563166,18.994413407821227,set #1
1970-01-01 00:00:26.647367057,3.5216619968414307,0.21513217687606812,1.078598141670227,91.78062698999997,-296.69849390999997,-501.76350939,-747.14100552,-173.53562772,1898.14205529,-456.8544084,197.16320052,19.273743016759774,set #1
1970-01-01 00:00:26.658139762,3.52136492729187,0.22134090960025787,1.0907845497131348,558.92332236,604.42587114,483.28355088,71.52007824,1429.71780354,1778.73549282,-638.5907213400001,-381.19649802000004,19.553072625698324,set #1
1970-01-01 00:00:26.667453107,3.520811080932617,0.22747142612934113,1.1029958724975586,-1173.97192419,178.01334213,-1196.82651348,-1598.4071376000002,1390.77882294,1393.13094024,-1128.80238159,-71.72162634,19.83240223463687,set #1
1970-01-01 00:00:26.677522239,3.5201334953308105,0.2333477884531021,1.1151163578033447,-49.941442589999994,-1623.54581415,-43.49953608,-278.28519771000003,1396.87657746,1259.8157633100002,-1119.02766417,-177.12614673,20.111731843575416,set #1
1970-01-01 00:00:26.687535343,3.5194013118743896,0.23902232944965363,1.1274003982543945,996.2067733800001,699.57933786,668.03921145,535.5089372100001,-2663.32986543,520.49068305,-175.48012794,160.89405852000002,20.391061452513966,set #1
1970-01-01 00:00:26.697403011,3.518540143966675,0.24447645246982574,1.1397082805633545,3882.9176802,886.0363016700001,1010.13071094,864.74742783,-4196.433309120001,704.95040538,622.31636025,920.61069477,20.670391061452513,set #1
1970-01-01 00:00:26.707934198,3.5178370475769043,0.24960404634475708,1.152038812637329,1212.38813748,-1445.48130714,551.16657258,411.94761738,-4996.5166953,432.88426818,786.0309389399999,356.799417,20.94972067039106,set #1
1970-01-01 00:00:26.717299280,3.5171103477478027,0.25438907742500305,1.1642251014709473,-1894.4491176000001,126.64810079999998,47.0996136,-325.4370912,-5658.7162632,319.8008736,89.3063184,23.173425599999987,21.22905027932961,set #1
1970-01-01 00:00:26.727684316,3.516343116760254,0.25897806882858276,1.1764800548553467,-1412.12638476,985.66239252,794.68382292,456.54958596,-4318.58931192,376.10220336,1029.65826756,310.89696768000005,21.508379888268156,set #1
1970-01-01 00:00:26.737435636,3.5154693126678467,0.26334017515182495,1.1886569261550903,-2488.4069293200005,-426.8169204000001,284.48143932,-143.86774896,-3573.3542754,-205.18652544000003,671.43217284,-106.3821174,21.787709497206702,set #1
1970-01-01 00:00:26.747448024,3.5146844387054443,0.26742470264434814,1.2008123397827148,-3030.31459848,-849.56123304,362.6441988,-104.7245628,-4338.9071544,21.8719956,1387.9456531199999,54.61757496,22.06703910614525,set #1
1970-01-01 00:00:26.758054552,3.5138518810272217,0.27120909094810486,1.2129048109054565,-3176.46574128,-523.87481952,267.5598588,-214.20398376000003,-3399.71411832,57.655752959999994,542.43618,126.97289904,22.3463687150838,set #1
1970-01-01 00:00:26.767568645,3.5130393505096436,0.2747717499732971,1.2248363494873047,-2842.968531,1741.8724908,-117.25888005000002,-697.3683327000001,-1758.126123,-166.1844132,397.79476424999996,-119.14626164999999,22.625698324022345,set #1
1970-01-01 00:00:26.777431545,3.512220859527588,0.27786383032798767,1.2364894151687622,-2252.8112178,2974.4397325500004,711.1896967499999,285.91544865,-1945.8459462,-34.34709720000001,261.25723845000005,277.22631495,22.90502793296089,set #1
1970-01-01 00:00:26.787477550,3.511364459991455,0.2809097468852997,1.2481346130371094,-2966.2410179999997,779.463165,200.8054425,-284.52871200000004,-2273.4893025,-96.771012,796.1462535000001,460.10148599999997,23.18435754189944,set #1
1970-01-01 00:00:26.797452983,3.510430097579956,0.28369221091270447,1.2596347332000732,-1784.29391829,1466.64330696,1000.06061688,380.2932198,-743.7991977,-422.44280441999996,892.0248417600001,462.71566263,23.463687150837988,set #1
1970-01-01 00:00:26.808232364,3.509371757507324,0.2862892746925354,1.2710320949554443,-3626.44333272,-938.8174536,-612.39448296,-1117.9445316,-4051.3967785199998,-960.48229056,-366.11170284,-265.92139704,23.743016759776534,set #1
1970-01-01 00:00:26.817484197,3.508366107940674,0.2886417508125305,1.2822555303573608,-2805.55343835,-820.66671102,192.32754060000002,-128.8697787,4650.54019677,-5440.201160940001,-218.42092779,97.88906517000001,24.022346368715084,set #1
1970-01-01 00:00:26.827307758,3.5073659420013428,0.29076826572418213,1.2933202981948853,-2198.8082025000003,-13.054201680000002,764.80446198,246.59636196,-2259.14816868,-2591.57562924,336.44397929999997,16.60539659999999,24.30167597765363,set #1
1970-01-01 00:00:26.837344465,3.5064151287078857,0.292662650346756,1.304298996925354,-3131.2615113,-1091.3925594,-373.04113275,-943.6703484000001,5157.2453088,1301.19205515,-108.06461055,-616.9178983500001,24.581005586592177,set #1
1970-01-01 00:00:26.847558794,3.505335807800293,0.2941382825374603,1.3148503303527832,-2175.9746307,-845.50393434,387.50105862,-83.89468464000001,811.3812135,2796.19045368,98.34839742,-414.37617467999996,24.860335195530723,set #1
1970-01-01 00:00:26.858416137,3.5043115615844727,0.2956947386264801,1.325376033782959,-2062.99637037,-1474.48313376,134.5809855,-298.40005845,-1574.98821441,2023.3844498400001,335.36233575,-303.91975614,25.139664804469273,set #1
1970-01-01 00:00:26.869157609,3.503265142440796,0.2970755100250244,1.3356637954711914,-2178.99344286,-339.94015926,257.19872451000003,-301.83660039,-2606.4757563,2182.60742037,191.22718056,-345.28351065000004,25.41899441340782,set #1
1970-01-01 00:00:26.877498445,3.502134323120117,0.2980231046676636,1.3454132080078125,-854.8701915,1922.71284075,984.48189645,453.21120585,403.85911995,1474.97211615,345.1381479,51.5200257,25.698324022346366,set #1
1970-01-01 00:00:26.887457666,3.501150608062744,0.2990657687187195,1.35513174533844,-991.36483992,2140.1919356999997,607.39464708,206.60985228,-212.04083315999998,1601.32840218,232.72781532,158.36900274,25.977653631284916,set #1
1970-01-01 00:00:26.897411642,3.500109910964966,0.2998216152191162,1.3644508123397827,-1678.69657956,-904.99366386,-149.637696,-823.9095368400001,-7.430920380000003,895.40517222,-253.5040677,-136.51708434,26.256983240223462,set #1
1970-01-01 00:00:26.908020553,3.499142646789551,0.3006056249141693,1.3737926483154297,-946.64689158,1279.95480171,56.13900864,-213.18543012,32.59954269,790.75472658,-9.30913815,421.07232492,26.53631284916201,set #1
1970-01-01 00:00:26.917248783,3.4981765747070312,0.30109772086143494,1.382652997970581,-800.00360037,926.1921501300001,-10.697215619999994,-303.02669553000004,920.99903805,297.88935306,33.40745031,451.28730231000003,26.815642458100555,set #1
1970-01-01 00:00:26.927688655,3.497260808944702,0.3014947474002838,1.3913553953170776,-230.66237610000002,721.3013964,839.14155975,527.77491,1397.5910364,568.816599,497.85812505,708.9098874,27.094972067039105,set #1
1970-01-01 00:00:26.937225637,3.496272563934326,0.3017772138118744,1.3998467922210693,-320.13704072999997,165.56759817,982.6856750100001,483.97945050000004,480.61153842000004,540.2885556900001,496.9655652,815.3517504600001,27.37430167597765,set #1
1970-01-01 00:00:26.947621879,3.4953856468200684,0.30200615525245667,1.4082703590393066,-425.06566907999996,3.15820128,855.69086655,613.68843861,-481.84203483000005,352.28313627,275.20829388,572.64518337,27.653631284916198,set #1
1970-01-01 00:00:26.958243904,3.494417428970337,0.30198946595191956,1.4162224531173706,-1358.12254656,-869.73811392,23.18120064,-99.54507264,-1038.97914432,239.79299136,286.26485472,402.23755104,27.932960893854748,set #1
1970-01-01 00:00:26.968257007,3.493669271469116,0.30190250277519226,1.4241052865982056,-681.4689804000001,-36.080661240000005,448.93567602,236.15046546,-2466.3815681700003,-25.25328039,385.45351494,257.02317693000003,28.212290502793294,set #1
1970-01-01 00:00:26.977530775,3.4929871559143066,0.3016049563884735,1.4313740730285645,-1256.9537175,-246.39126525,-179.359128,-441.12410550000004,-1355.45967375,57.2253825,-352.70893125000003,-375.9170415,28.49162011173184,set #1
1970-01-01 00:00:26.987566289,3.4923582077026367,0.3012782335281372,1.438434362411499,-535.38701736,664.29561978,-53.115777390000005,-379.61151384000004,399.9555027,175.74825528,-250.02403062000002,-424.11395325,28.77094972067039,set #1
1970-01-01 00:00:26.997317132,3.4918999671936035,0.300812304019928,1.4453431367874146,-819.4342962000001,884.47065876,208.174629,-161.53037784,1053.52006656,104.13450372,-492.6415182,-545.75545908,29.050279329608937,set #1
1970-01-01 00:00:27.007883844,3.491539716720581,0.3002723753452301,1.4520095586776733,491.4858156,2680.2129634800003,1107.18891972,737.21275836,771.3341766,173.62474116,-93.48810900000001,97.19820864000002,29.329608938547484,set #1
1970-01-01 00:00:27.017390308,3.491285800933838,0.2996622323989868,1.4584308862686157,442.47170604,2614.7198454,458.96612736,191.68471295999998,1269.4466179199999,204.47618412,-285.58167144000004,136.46000784,29.60893854748603,set #1
1970-01-01 00:00:27.027464923,3.49114727973938,0.2989974915981293,1.4645689725875854,539.71714836,2603.74643724,528.3543345600001,125.04214086,1680.4233435600001,-114.31499625000001,-148.89048408,384.53304083999996,29.88826815642458,set #1
1970-01-01 00:00:27.037510690,3.4909002780914307,0.29830220341682434,1.4704312086105347,435.5625339,2249.7227688000003,492.37386119999996,300.8690802,1157.5789368,-435.6271569,-279.1223175,249.7584258,30.167597765363126,set #1
1970-01-01 00:00:27.047317562,3.4907352924346924,0.2974928915500641,1.4761074781417847,281.43569766,1906.92821592,9.575235540000023,-43.19861363999999,1547.25119016,-236.63523936,-75.36934781999999,317.62430466,30.446927374301673,set #1
1970-01-01 00:00:27.058445272,3.490485906600952,0.29667314887046814,1.4814577102661133,395.147532,721.8663784800001,256.87498824000005,-12.528753120000005,1479.9560380799999,-501.98822232000003,-52.617165119999996,258.20702544,30.726256983240223,set #1
1970-01-01 00:00:27.068448600,3.4902124404907227,0.2958560287952423,1.486560344696045,143.527332,883.933362,480.511044,378.004848,661.392732,-473.531058,175.82635199999999,373.57086,31.00558659217877,set #1
1970-01-01 00:00:27.077740964,3.489893674850464,0.29494744539260864,1.4914833307266235,-763.32636432,-979.10438964,-404.41594127999997,-565.70443644,-40.62109116,-669.2963799600001,-133.7300484,-316.48028880000004,31.284916201117316,set #1
1970-01-01 00:00:27.087195453,3.489682912826538,0.2940147817134857,1.496143102645874,-324.20665524000003,78.76411959,93.41208006000001,-93.59801451,-1196.18836077,-819.14358669,189.70681236000001,-241.36553415,31.564245810055866,set #1
1970-01-01 00:00:27.097628173,3.489400863647461,0.2930130362510681,1.5004849433898926,672.00305679,-861.8550887700001,600.3773185800001,412.03451133,-2724.90979176,-760.41145401,217.29776913,-610.81577739,31.843575418994412,set #1
1970-01-01 00:00:27.107965526,3.489112377166748,0.2920109033584595,1.5046226978302002,92.27074194,270.40652886000004,810.9583887599999,593.6282952600001,-3009.1782598799996,-749.49913272,138.49033458000002,-688.0201551600001,32.12290502793296,set #1
1970-01-01 00:00:27.117521343,3.4887495040893555,0.29098984599113464,1.5085374116897583,176.77801245,577.1447955,807.85302039,531.64958613,-1816.18341411,-531.8220491999999,183.22367232,-349.41644243999997,32.402234636871505,set #1
1970-01-01 00:00:27.127897319,3.488365888595581,0.28997331857681274,1.5122230052947998,-56.85059445,110.14405662,303.42732420000004,98.80258284,-132.11433105,-357.68060757,-185.60842014,-257.93784237,32.68156424581005,set #1
1970-01-01 00:00:27.137699661,3.4879567623138428,0.2890130579471588,1.5156404972076416,-233.22053469,-191.05810113,-76.18313352000001,-280.90246275,968.49308166,-129.42791316,-259.31377836,-192.33081660000002,32.960893854748605,set #1
1970-01-01 00:00:27.147859153,3.4875855445861816,0.28811120986938477,1.5188602209091187,-20.69179047,691.77230382,-112.58090571,-274.99677894,-51.7186878,-31.07367627,-51.60072918,251.81362284,33.24022346368715,set #1
1970-01-01 00:00:27.158419189,3.4873366355895996,0.2872198522090912,1.52182137966156,883.3772808900001,1029.65357118,214.15877223,-18.40317024,273.63142911,189.29789463,-54.731967420000004,232.87332081,33.5195530726257,set #1
1970-01-01 00:00:27.167422113,3.4870855808258057,0.2863931357860565,1.5246158838272095,1479.7820735100001,1785.4717374000002,224.51868621,100.72722231,-46.39533873,-19.307106780000005,-87.32579037,322.39191816,33.798882681564244,set #1
1970-01-01 00:00:27.177554187,3.487041711807251,0.2856055498123169,1.5271562337875366,1020.57629973,719.91599706,425.88581607,70.69374624000001,-414.53438013000005,76.48033224000001,146.54874623999999,423.19131426,34.07821229050279,set #1
1970-01-01 00:00:27.187204179,3.4870688915252686,0.2849189341068268,1.529500126838684,582.67931319,53.47318314,252.57889917,-5.757216270000001,-699.02270334,62.89709205,104.097981,389.08576473,34.35754189944134,set #1
1970-01-01 00:00:27.197284278,3.4871842861175537,0.28431159257888794,1.531594157218933,239.63534321999998,-771.79823682,-436.83992118000003,-530.22923694,-1420.0349467199999,18.13821048,-225.44744742,137.26681566,34.63687150837988,set #1
1970-01-01 00:00:27.208220539,3.4873087406158447,0.28376075625419617,1.5335111618041992,548.41948161,-276.81980079,355.62026604,231.99483606,-3368.7800784300002,208.91984685,-70.45998921,427.56739935,34.91620111731844,set #1
1970-01-01 00:00:27.217400846,3.487459659576416,0.28330710530281067,1.53515625,598.55688984,-1021.67685984,509.70083658,252.75425214,-3256.52513706,186.81805272,115.11870006000001,170.71989948000004,35.19553072625698,set #1
1970-01-01 00:00:27.227719125,3.4875810146331787,0.28291821479797363,1.5366439819335938,-243.5939025,-1911.5739825,-549.01250625,-759.303285,-2373.16477125,-297.12067125,-441.55512375,-360.94885124999996,35.47486033519553,set #1
1970-01-01 00:00:27.237564859,3.487757444381714,0.2825625240802765,1.5378413200378418,718.56890937,-1164.29627106,507.81214769999997,292.47326706,-878.77168743,409.62232974,98.05826706,-349.82771577,35.754189944134076,set #1
1970-01-01 00:00:27.247471389,3.487905502319336,0.28223755955696106,1.538900375366211,1192.98634026,-587.9727816300001,37.73831022000002,-68.31352398000001,-615.3493616400001,-92.5101762,-254.25282207000004,60.3405777,36.03351955307262,set #1
1970-01-01 00:00:27.257982788,3.488115072250366,0.28195977210998535,1.5397155284881592,2786.91879804,-365.07516084,584.7670498800001,288.76981068,-539.34321636,-160.94112995999998,-100.41290376,-292.76684580000006,36.31284916201117,set #1
1970-01-01 00:00:27.268054542,3.488354206085205,0.28172585368156433,1.540352463722229,2347.39806756,-824.0286428400001,298.56708726,20.9337804,-602.05697838,29.40564432,43.0590537,18.98163072,36.592178770949715,set #1
1970-01-01 00:00:27.277240333,3.4884707927703857,0.2815646827220917,1.5408469438552856,1785.80957412,-72.58786743000002,419.47484163,162.45730136999998,-876.24067011,17.20408833,-23.05231422,-142.05718955999998,36.87150837988827,set #1
1970-01-01 00:00:27.288101730,3.4886066913604736,0.2814697325229645,1.541060447692871,1281.2139522,-112.2490122,-233.0219151,-160.349397,-1184.8174338,-933.3922533,-463.2922047,-450.3699876,37.150837988826815,set #1
1970-01-01 00:00:27.297575054,3.4888498783111572,0.2813877463340759,1.5410877466201782,279.20567454,-458.72633976,-155.8205844,-12.86789556,-2064.78529686,-1428.2345415,-250.62764532,-581.3278520399999,37.43016759776536,set #1
1970-01-01 00:00:27.307779130,3.489175319671631,0.2813020646572113,1.5408978462219238,1421.229576,264.1247193,475.1599671,715.9730526000001,-1720.6091097,-2514.2750646,58.0333533,-403.49367629999995,37.70949720670391,set #1
1970-01-01 00:00:27.317542848,3.4894156455993652,0.2812773287296295,1.5405652523040771,652.1032377600001,-901.9762627199999,-149.48510304,90.83342112000001,-1659.70947168,-2969.10857568,-53.18411904,127.53690144000001,37.988826815642454,set #1
1970-01-01 00:00:27.327899274,3.4897360801696777,0.2812686264514923,1.5399988889694214,710.82878646,-439.92212862,133.19206836,43.131798059999994,-690.32122536,-3286.8226833,101.46016218,557.9569242,38.268156424581,set #1
1970-01-01 00:00:27.337417898,3.490072250366211,0.2812921702861786,1.5392459630966187,1156.16294742,131.54971440000003,526.20666384,494.10211656,228.51430133999997,-3391.11947694,53.842074780000004,487.418022,38.54748603351955,set #1
1970-01-01 00:00:27.347497997,3.4904654026031494,0.28139594197273254,1.5383033752441406,890.92043235,114.88341462,517.22202285,354.96093126000005,87.18618792000004,-3779.41735119,34.6868574,182.78325429,38.8268156424581,set #1
1970-01-01 00:00:27.358040390,3.4909181594848633,0.28151655197143555,1.537207007408142,-354.6294804,-631.7451308999999,-546.2780934,-815.9310471,1064.9520140999998,-3795.9042185999997,-207.50280719999998,249.4555206,39.10614525139665,set #1
1970-01-01 00:00:27.367395219,3.491361379623413,0.2816733121871948,1.5360218286514282,606.28313733,363.40558488,253.75668786,57.2740623,819.6025874400001,-3805.23653211,39.1103115,217.66801017,39.385474860335194,set #1
1970-01-01 00:00:27.377362070,3.491856336593628,0.2819407880306244,1.5345476865768433,1.3848197999999883,171.92259239999998,-141.7518297,-577.1937249,-157.71441270000003,-3673.1679387,74.772321,372.9071736,39.66480446927374,set #1
1970-01-01 00:00:27.387226877,3.492408037185669,0.28233611583709717,1.5329749584197998,1192.69871682,1559.69380983,399.63838902,-411.32438685,-1070.1667762499999,-3925.4966236200003,217.3248519,607.06174191,39.94413407821229,set #1
1970-01-01 00:00:27.397693452,3.492985486984253,0.28268423676490784,1.531229019165039,728.97014736,653.0096274,356.303181,63.70799916,-1383.95561148,-3384.5512069200004,-71.97714108000001,176.05819764,40.22346368715083,set #1
1970-01-01 00:00:27.408161458,3.4934937953948975,0.28304412961006165,1.529396653175354,202.71663438000002,-290.37537204,416.46106086,-105.9032949,4783.95739926,2664.19794186,271.50293118,245.92339356,40.502793296089386,set #1
1970-01-01 00:00:27.417655048,3.494023084640503,0.28336960077285767,1.5274540185928345,256.60687104,-435.94921656,449.12202504000004,-91.11187488,6388.9800000000005,-1204.4441791200002,318.10687584000004,221.15952456000002,40.78212290502793,set #1
1970-01-01 00:00:27.427636919,3.4945759773254395,0.28371208906173706,1.5253456830978394,810.42434889,-352.19569086,298.55313072,-211.02620409,5628.57814935,-4007.98281624,271.59931266,414.51810153,41.06145251396648,set #1
1970-01-01 00:00:27.437605676,3.495009183883667,0.2841278612613678,1.5231437683105469,451.20435828,-860.8529186400001,57.773004119999996,-421.45150944,6278.95889244,-4883.27899176,-124.97258748,377.62178064,41.340782122905026,set #1
1970-01-01 00:00:27.447281656,3.495387554168701,0.2844804525375366,1.5208672285079956,241.36125936,-756.93108816,-67.86094536,-337.5750612,4502.29518024,-4076.8928304,-89.30935728,74.07595104,41.62011173184357,set #1
1970-01-01 00:00:27.458108720,3.4958126544952393,0.28479769825935364,1.518415927886963,-239.1410424,-1759.5661824,-341.0932512,-652.2191832000001,4331.4594648,-3381.0851568,-249.6378144,-185.0060472,41.89944134078212,set #1
1970-01-01 00:00:27.467759666,3.4962353706359863,0.2850862145423889,1.5159881114959717,418.00354284,-2058.3401451600002,-337.97528154,-646.45466262,3439.7506213200004,-2772.59721726,-70.48359786,-50.75843994,42.178770949720665,set #1
1970-01-01 00:00:27.477391061,3.49660587310791,0.28542977571487427,1.5133763551712036,-101.45112276,-2478.0762606599997,-46.88282118,-551.0308038300001,2844.16212366,-2646.7829590799997,-188.68698576,-50.86339635,42.45810055865922,set #1
1970-01-01 00:00:27.487528142,3.4968180656433105,0.28579607605934143,1.510682225227356,968.94795504,-2215.7445258000002,-96.62558724,-668.58659088,26.9952462,-1811.4509088,214.66014257999998,-257.99522736,42.737430167597765,set #1
1970-01-01 00:00:27.497343358,3.4971377849578857,0.2861038148403168,1.5079045295715332,1166.28232968,-997.2727712999999,-154.9145481,-754.8108165,903.4211503199999,-1016.10818556,46.96564704,-592.0674169800001,43.01675977653631,set #1
1970-01-01 00:00:27.507616338,3.4974536895751953,0.2864507734775543,1.5048940181732178,1963.24451076,1702.2719961,-225.03857142,-666.87770058,1467.67139922,-1269.60622308,41.952133079999996,31.16528376,43.29608938547486,set #1
1970-01-01 00:00:27.517651138,3.497933864593506,0.28674444556236267,1.5020363330841064,2049.1587417600003,1551.54884274,-343.36906734,-749.61425838,2293.27519044,-583.98686502,300.08003376,-237.62941566,43.575418994413404,set #1
1970-01-01 00:00:27.527393636,3.4984219074249268,0.2870170772075653,1.498849630355835,2123.41028328,823.17258972,-384.89346636000005,-474.372951,2507.58587664,-547.28489712,639.61449708,-80.33219064000001,43.85474860335195,set #1
1970-01-01 00:00:27.537340459,3.498839855194092,0.28731590509414673,1.495438814163208,337.81460076,-1091.06423127,-448.06138572,-333.46483365,1572.6280451700002,37.4564931,530.64422775,-262.15178496,44.1340782122905,set #1
1970-01-01 00:00:27.547651348,3.4992213249206543,0.28773680329322815,1.4917104244232178,-9.759076079999998,-1954.14065964,-545.34379224,-134.84346096,1934.85214416,-1602.31692192,1702.27137132,-131.94736932,44.41340782122905,set #1
1970-01-01 00:00:27.558432159,3.4996817111968994,0.28813832998275757,1.487657070159912,365.03359152,364.19486844,-127.84573308,616.31330319,2744.34770181,-1598.1914991899998,1362.51791598,37.713352560000004,44.6927374301676,set #1
1970-01-01 00:00:27.567300853,3.5002739429473877,0.28842270374298096,1.4834703207015991,209.29885041,2379.0010202400003,-577.45654395,146.73903582000003,2388.3386315099997,-1551.35256783,220.84351575,97.22682255000001,44.97206703910614,set #1
1970-01-01 00:00:27.577674446,3.5008792877197266,0.2887313961982727,1.4789738655090332,-87.58111362,3441.03682884,-645.94362222,63.49754502,1829.7584604,-1142.49084456,16.17387408,9.586253820000003,45.25139664804469,set #1
1970-01-01 00:00:27.587444362,3.501537561416626,0.2890826165676117,1.4742646217346191,-166.0416342,5010.13123338,-581.75299026,52.0826475,2199.51146844,-613.43267934,90.9159927,-492.3825192,45.530726256983236,set #1
1970-01-01 00:00:27.597203550,3.5021138191223145,0.2894137501716614,1.4693567752838135,-479.2850985,4529.045098500001,-937.213329,-402.1361175,2020.5715725,-343.95995400000004,-634.8974385,-675.3050460000001,45.81005586592178,set #1
1970-01-01 00:00:27.608342227,3.502894401550293,0.2896725535392761,1.464107871055603,-297.52976253,3382.0279720500002,-503.64115425,-174.09067143000001,675.31669959,463.27741199999997,-560.0735673,-223.72244037,46.08938547486033,set #1
1970-01-01 00:00:27.617664871,3.5035812854766846,0.28991055488586426,1.4587488174438477,792.21992733,2465.7346958400003,178.76750775,730.57045815,849.29228592,354.18092697000003,-849.19774407,-196.13174061,46.36871508379888,set #1
1970-01-01 00:00:27.627375898,3.5044305324554443,0.29016563296318054,1.4530410766601562,710.35775226,3397.77960132,-125.0609802,283.88624003999996,837.1812290400001,313.00021584,-1952.0740473,-749.36755842,46.64804469273743,set #1
1970-01-01 00:00:27.637630758,3.5051636695861816,0.2903851568698883,1.4472681283950806,459.35075472,2841.5397153,-294.9747372,140.55122640000002,-325.97445582,123.39912233999999,-2213.51481468,-859.6941678000001,46.927374301675975,set #1
1970-01-01 00:00:27.647374687,3.5059640407562256,0.29049092531204224,1.4413433074951172,511.08527847,1843.67364246,-114.86427732,245.87742192,691.76029923,1273.66223127,-1670.51661621,-857.4921923100001,47.20670391061452,set #1
1970-01-01 00:00:27.658115921,3.5065906047821045,0.2906479239463806,1.4352737665176392,-116.79310032000001,1098.77650545,158.4846978,319.57158051,330.01603518,1372.09127211,-942.88119705,-1223.7786420599998,47.48603351955307,set #1
1970-01-01 00:00:27.668110427,3.5072877407073975,0.29080069065093994,1.4289162158966064,313.51356504,983.90803485,291.96318021,315.83451081,1356.54614238,1675.6156345499999,-1084.74770313,-1258.02056094,47.765363128491614,set #1
1970-01-01 00:00:27.677333412,3.5079920291900635,0.290853887796402,1.4226009845733643,-100.17717995999999,-153.60828444,255.7679436,432.82867992,1084.2230100000002,1854.25831344,-748.7207644800001,-1012.3285614,48.04469273743017,set #1
1970-01-01 00:00:27.687584695,3.5086746215820312,0.2908003032207489,1.416205644607544,-520.98785115,-716.97411045,124.48848945,330.30822825,861.94577625,2021.67280185,-824.4272868,-1233.5230557,48.324022346368714,set #1
1970-01-01 00:00:27.697573003,3.5092718601226807,0.29069986939430237,1.4096534252166748,-786.35495055,-1471.59784512,183.93657828,335.39301978000003,1618.53005262,1751.94660459,-1099.66782198,-870.57239373,48.60335195530726,set #1
1970-01-01 00:00:27.707834062,3.5098159313201904,0.2905966639518738,1.4029539823532104,-1026.0619434,-1905.39956256,278.34165138000003,406.85091408,495.9983106,1979.9150615400001,-875.8369198800001,-570.1228026,48.88268156424581,set #1
1970-01-01 00:00:27.717366991,3.51041579246521,0.2903929352760315,1.3961057662963867,-984.087351,-1807.32705231,254.82562052999998,461.85884238,391.29827022,2038.52652783,-274.14010728,-563.6651311200001,49.162011173184354,set #1
1970-01-01 00:00:27.727294979,3.5109362602233887,0.2900998890399933,1.3893178701400757,-1349.19929664,-2113.08689865,247.21186425,544.02143874,-372.59279148,1926.70280127,-181.06525086,-295.55064435,49.4413407821229,set #1
1970-01-01 00:00:27.737751064,3.5114235877990723,0.2898120880126953,1.3824806213378906,-1598.76846792,-2244.75450264,194.14862688000002,381.81081432,43.149790319999994,1804.1980787999998,357.84075288,-73.27105032,49.72067039106145,set #1
1970-01-01 00:00:27.747630653,3.5120797157287598,0.2894461750984192,1.3753654956817627,-1757.49776787,-2379.53210859,54.36385305,173.44613325,131.69458107,1467.6013599,175.30403163,-43.42423761,50.0,set #1
1970-01-01 00:00:27.758188543,3.512674570083618,0.28903424739837646,1.3682360649108887,-1462.78999698,-2791.02717777,-40.34028063,110.59904388,-292.42746662999997,1806.87262782,171.17420424000002,135.30678291,50.279329608938546,set #1
1970-01-01 00:00:27.768100080,3.5133793354034424,0.2884765565395355,1.3609697818756104,-1661.7881280000001,-2157.5888256,-146.28559919999998,134.2749096,811.80294,1522.152372,102.567972,301.58834160000004,50.55865921787709,set #1
1970-01-01 00:00:27.777448949,3.514091968536377,0.28783032298088074,1.3536326885223389,-1593.67527696,-1105.0486044,42.764138429999996,232.952967,-749.0389452000001,-968.44672314,18.03778236000001,191.8202637,50.83798882681564,set #1
1970-01-01 00:00:27.787577924,3.514747142791748,0.2871510088443756,1.3459868431091309,-1514.58541416,-630.024759,157.69667004,184.08239304,-1237.04545848,-2448.23514936,47.06861172,361.9151562,51.117318435754186,set #1
1970-01-01 00:00:27.797528562,3.5155584812164307,0.28633764386177063,1.3382667303085327,-2365.72680162,-2231.94424674,311.33741184,300.75081503999996,-2237.3392134600003,-2647.41551958,666.35366538,1492.96211142,51.39664804469273,set #1
1970-01-01 00:00:27.807911930,3.5164003372192383,0.2853917181491852,1.3305286169052124,-2409.7595886,-2361.0304106999997,135.0062532,154.31015730000001,-429.1107132,-2159.2005279,1029.5667486,1026.4343193,51.67597765363128,set #1
1970-01-01 00:00:27.817350921,3.5171959400177,0.2843550741672516,1.3226529359817505,-676.4047134,-504.88312836,466.57783302,361.73741994,-1112.2385414399998,-1575.35508039,667.29943488,218.58234021,51.95530726256983,set #1
1970-01-01 00:00:27.827445802,3.5180060863494873,0.28323331475257874,1.314599871635437,-246.47486916000003,-282.59361,474.81424848,315.83597760000004,111.19203264000001,272.06360688,-296.4759954,406.890471,52.23463687150838,set #1
1970-01-01 00:00:27.837836561,3.5189616680145264,0.28194376826286316,1.3065141439437866,919.49927589,631.92805923,526.55767944,472.19227146000003,-282.73568895,479.28024612,-112.42860057,-404.10694077,52.513966480446925,set #1
1970-01-01 00:00:27.847372827,3.5197744369506836,0.28057846426963806,1.2984874248504639,-1353.79465455,-1255.44600324,461.83421505,341.98129095,916.0666214700001,1156.18317126,402.39702984,1432.87211028,52.79329608938547,set #1
1970-01-01 00:00:27.858737525,3.520634889602661,0.27909788489341736,1.2903449535369873,-0.7624792499999984,658.8100350000001,277.57685475,351.837993,1955.7892964999999,3072.4943535,-96.18639225000001,367.83656325,53.07262569832402,set #1
1970-01-01 00:00:27.868687210,3.5214970111846924,0.27754348516464233,1.282179355621338,314.5241424,1925.0591178,-249.0254637,95.95719120000001,1778.3480754,4269.2807469,-435.5401908,-354.1172856,53.351955307262564,set #1
1970-01-01 00:00:27.877290067,3.5223336219787598,0.2758755087852478,1.2739540338516235,344.47373181,917.4309108900001,-179.52108954000002,101.04255875999999,339.24759492,4779.83286612,296.90003616,-508.60574816999997,53.63128491620111,set #1
1970-01-01 00:00:27.887300071,3.523115396499634,0.2741163671016693,1.2658088207244873,431.56962498,-358.52190504000004,507.24402378,264.19466697,-2829.9056377800002,3761.11969857,837.9975411600001,232.63583069999999,53.910614525139664,set #1
1970-01-01 00:00:27.897537050,3.523956537246704,0.2722223699092865,1.2575619220733643,264.841356,-528.239868,492.2525205,-24.572047499999996,-3537.00282,3337.4822520000002,633.8222475,-494.4331665,54.18994413407821,set #1
1970-01-01 00:00:27.908423957,3.52471923828125,0.27029967308044434,1.2492969036102295,603.7782753600001,421.06275627,777.49990734,178.56357129,-5642.89503687,3205.6761223500002,966.0425973900001,-30.77955465,54.46927374301676,set #1
1970-01-01 00:00:27.917341051,3.52553391456604,0.2682439386844635,1.2410069704055786,818.94511101,444.26691543000004,1439.23645827,577.84556817,-3500.0305419300003,2395.02520335,988.86113079,-26.47606923,54.7486033519553,set #1
1970-01-01 00:00:27.927289543,3.526371479034424,0.26604577898979187,1.232796549797058,938.7580956,77.52568746,2518.2094290600003,482.52509877,-1568.58564993,1872.51337416,724.00107468,-18.286469759999996,55.02793296089385,set #1
1970-01-01 00:00:27.937362966,3.5271363258361816,0.26375851035118103,1.224616527557373,1285.38671664,115.09801134,3134.49798246,311.96109594,-4380.2124639,1566.31325448,468.37833666,125.4139185,55.307262569832396,set #1
1970-01-01 00:00:27.948225555,3.527919292449951,0.2613878846168518,1.2163498401641846,1213.65181275,-28.491645,3329.11663305,119.6303355,-2990.24238435,701.6386494000001,369.83136255,153.81124785,55.58659217877095,set #1
1970-01-01 00:00:27.958100852,3.5287528038024902,0.2588593363761902,1.2080693244934082,882.3489963600001,-541.2789688800001,3392.2084450800003,119.2220406,-3086.14410936,1672.2363886800001,417.23300267999997,196.27972728,55.865921787709496,set #1
1970-01-01 00:00:27.968046007,3.5295023918151855,0.256220281124115,1.1998451948165894,873.3054587400001,-549.62306646,3108.70083264,-166.023546,-2921.95687095,1431.7103127599999,441.20510148,356.22233946000006,56.14525139664804,set #1
1970-01-01 00:00:27.977444705,3.5301570892333984,0.25342169404029846,1.191533088684082,673.6842294,-407.43615705,2827.5826020000004,-43.59701385,-3466.24250115,602.0444742000001,998.3058930000001,462.58404465,56.42458100558659,set #1
1970-01-01 00:00:27.987087068,3.5307323932647705,0.2506515681743622,1.1833735704421997,160.370652,-715.29795636,2042.69491296,-22.93534776,-2185.31704404,-166.26934740000002,980.38034796,481.74313044,56.703910614525135,set #1
1970-01-01 00:00:27.997676668,3.531376600265503,0.24774017930030823,1.175206184387207,332.87955324,-703.62366516,1162.9655247599999,-255.19387451999998,-956.56244112,-926.2242132,932.57984196,411.19780104,56.98324022346368,set #1
1970-01-01 00:00:28.008106050,3.5320608615875244,0.2446271777153015,1.166994571685791,240.796257,-978.8586405,-406.273686,-494.5499715,-1094.2590945,-1774.0382594999999,739.4157225,112.608288,57.26256983240223,set #1
1970-01-01 00:00:28.017220792,3.5326573848724365,0.24143822491168976,1.1588469743728638,732.0813520800001,-460.02469656,-550.30235832,-169.236834,-1301.42501112,-1583.53282464,821.05116912,272.96447568,57.54189944134078,set #1
1970-01-01 00:00:28.027574119,3.5331337451934814,0.23808060586452484,1.1505087614059448,347.84185644,-688.03511673,-973.28314356,-163.65925251000002,686.00121135,-1194.0748064699999,427.70869752,-113.2331538,57.82122905027933,set #1
1970-01-01 00:00:28.037602958,3.533830404281616,0.23457834124565125,1.1422470808029175,184.69361742,-814.25033664,-977.67786402,-394.85747262,1024.51470342,-747.43410768,125.94759684,-375.37455384000003,58.100558659217874,set #1
1970-01-01 00:00:28.047381458,3.534406900405884,0.23092344403266907,1.1340442895889282,224.76447864,-575.2707051,-939.22958298,-369.61622646,3113.90407146,-829.25675274,-109.63017390000002,-396.30749262,58.37988826815642,set #1
1970-01-01 00:00:28.058415470,3.5349128246307373,0.2270519733428955,1.1256095170974731,536.1062967,151.27481849999998,-830.9516397,-215.2097376,3222.9130323,-1079.5725681,-161.7791019,-231.17950050000002,58.65921787709497,set #1
1970-01-01 00:00:28.067534265,3.535430908203125,0.22316981852054596,1.1173126697540283,260.04436964999996,103.70766315,-743.8636335,-263.0629131,2368.1229175500002,-1038.14289735,-64.78905225,-444.35400945000004,58.938547486033514,set #1
1970-01-01 00:00:28.077642021,3.536010503768921,0.21918734908103943,1.1089776754379272,84.67373967,-411.45107445,-830.06296893,-348.59054685,1141.24647858,-291.836181,-100.98223902,-548.81674146,59.21787709497206,set #1
1970-01-01 00:00:28.087382850,3.5365400314331055,0.21512657403945923,1.1007379293441772,260.8935225,-280.732179,-759.2730015000001,-346.0067715,1322.806563,-902.0647935,37.747125000000004,-633.786738,59.497206703910614,set #1
1970-01-01 00:00:28.097350177,3.5372016429901123,0.2108873873949051,1.0925213098526,418.0944963,-170.69761566,-713.98939365,-290.37332649,2319.08026506,-1351.48895154,12.384604439999997,-461.58539739,59.77653631284916,set #1
1970-01-01 00:00:28.108500299,3.5378177165985107,0.20662567019462585,1.0843393802642822,508.17594711000004,-261.47890782,-524.5693572600001,-176.29702506,2959.28606649,-1987.4476962600002,-87.55581627000001,-380.2674915,60.055865921787706,set #1
1970-01-01 00:00:28.117369470,3.5383999347686768,0.2023499310016632,1.0763323307037354,285.5619975,-621.6305316,-723.5638566,-408.0866556,2074.5667332,-1673.6185478999998,-220.9695072,-539.0515766999999,60.33519553072625,set #1
1970-01-01 00:00:28.127232847,3.5388848781585693,0.19787940382957458,1.0682964324951172,368.70255552000003,-581.82279168,-442.51989756,-222.86508465,1426.3107385800001,-1417.16319225,-270.94211937,-732.65713716,60.6145251396648,set #1
1970-01-01 00:00:28.137316522,3.5393221378326416,0.1932293325662613,1.0601816177368164,144.6645525,-640.94194554,-464.0677821,-317.91986382,1706.0573930399999,-1193.25110892,-65.27241240000001,-700.0228599,60.893854748603346,set #1
1970-01-01 00:00:28.148161230,3.539628267288208,0.18852555751800537,1.0521172285079956,28.051842,-704.3441730000001,-447.51572189999996,-254.87188740000002,1796.6774514,-1452.598797,357.1509474,-1029.5807144999999,61.1731843575419,set #1
1970-01-01 00:00:28.157643375,3.539980173110962,0.18360283970832825,1.0439400672912598,61.120605,-767.96952375,-340.54751250000004,-71.19376875,1320.85029375,-1457.82102375,1221.10340625,-1895.44850625,61.452513966480446,set #1
1970-01-01 00:00:28.167960939,3.5402748584747314,0.17860011756420135,1.0358850955963135,-30.496131509999998,-986.7882511500001,-130.02533973,-17.20258722,1265.95823562,-1788.6954146100002,436.82127489,-798.95147124,61.73184357541899,set #1
1970-01-01 00:00:28.177715358,3.54046893119812,0.1735600233078003,1.0280113220214844,-160.85608656,-1348.94041854,339.56097942,217.2432873,231.43931772000002,-1975.4051733,7.45976478,-662.7829306799999,62.01117318435754,set #1
1970-01-01 00:00:28.187202272,3.5405807495117188,0.16843058168888092,1.0201432704925537,-67.9752528,-740.00469504,772.89040608,475.23358272,-886.4259456,-1610.09647968,-239.44313952000002,-456.68206272,62.290502793296085,set #1
1970-01-01 00:00:28.197335538,3.5407118797302246,0.1633174866437912,1.0124846696853638,-70.24385082,-152.5787406,763.12974738,518.0438140800001,-605.6927019000001,-1037.8441327799999,-184.36166268,-243.35742054,62.56983240223463,set #1
1970-01-01 00:00:28.207635221,3.5407629013061523,0.15802249312400818,1.0049344301223755,75.96289623,208.10179143,431.3006763,325.07480382,-1570.00134486,-422.71825245,-387.4967811,88.30919721000001,62.84916201117318,set #1
1970-01-01 00:00:28.217765626,3.5406930446624756,0.15263915061950684,0.9974708557128906,42.02236896,290.14769939999996,39.30461964,76.62886218,-329.84220672000004,-124.16017146,-467.81718828,27.91546446,63.12849162011173,set #1
1970-01-01 00:00:28.227406320,3.540531873703003,0.14712835848331451,0.9899564981460571,7.5693384,431.3201568,-154.4166624,-55.6013952,476.5686432,-141.84340559999998,-371.538804,195.4375488,63.40782122905028,set #1
1970-01-01 00:00:28.237522420,3.540302276611328,0.14151138067245483,0.9824827909469604,-35.532049799999996,534.929421,-302.96628960000004,-128.0364384,-906.3143466,104.0310492,-504.28511640000005,115.699545,63.687150837988824,set #1
1970-01-01 00:00:28.247364101,3.5401060581207275,0.13578219711780548,0.9752130508422852,-212.37505185,390.45296706,-402.28804941,-214.30898658,-848.55558255,316.85096157,-249.5450061,184.50294876,63.96648044692737,set #1
1970-01-01 00:00:28.258247671,3.5398051738739014,0.12990082800388336,0.9679148197174072,-419.89313184,347.98235238,-442.25455014,-228.41221494,-343.41099039,215.06683379999998,-218.45086536,145.04880663,64.24581005586592,set #1
1970-01-01 00:00:28.267460403,3.539547920227051,0.12392478436231613,0.9607167840003967,-288.82798736999996,685.45588566,-372.00608717999995,-161.56444473,-172.75839555,-19.075459260000002,-195.10992735,328.27610361,64.52513966480447,set #1
1970-01-01 00:00:28.277260360,3.539306402206421,0.11794912815093994,0.9536662101745605,-122.5313388,981.0811608,-433.51593479999997,-191.0040912,654.0330107999999,-295.4330808,-265.2425256,403.8218184,64.80446927374301,set #1
1970-01-01 00:00:28.287448940,3.5391664505004883,0.11186937987804413,0.9467830657958984,-77.3421012,1126.2238103999998,-428.30378759999996,-87.5490018,-485.8389744,194.1129216,-142.2354102,438.2330082,65.08379888268156,set #1
1970-01-01 00:00:28.297336874,3.5389721393585205,0.10560151934623718,0.939899206161499,-94.3397559,1222.72013838,-486.87889848,-164.77203912,569.30086356,-57.4542774,-55.41017976,350.64491982000004,65.3631284916201,set #1
1970-01-01 00:00:28.307570514,3.5387749671936035,0.09920874238014221,0.9329498410224915,-131.77748298,1108.5100119600002,-507.75499632000003,-223.64498988,4024.80285558,-1109.4576909,-130.3600506,319.20001932,65.64245810055866,set #1
1970-01-01 00:00:28.317387161,3.5385844707489014,0.09288232028484344,0.9262386560440063,-13.104495300000002,1176.64960062,-500.82079593000003,-231.67523574,2317.93312257,-1272.4065833700001,-216.11536049999998,176.03555736,65.92178770949721,set #1
1970-01-01 00:00:28.327450809,3.5384113788604736,0.08635254204273224,0.9195982813835144,-10.35204495,1237.5141714000001,-448.03061472,-167.57909064,1827.07982613,329.35032156,-200.38931835,242.516898,66.20111731843575,set #1
1970-01-01 00:00:28.337363538,3.5381977558135986,0.07979722321033478,0.9131670594215393,-106.08590772,1532.9787603,-516.67721118,-269.54322018,3398.6634396,670.01535822,-355.07063202,36.580723920000004,66.4804469273743,set #1
1970-01-01 00:00:28.347407636,3.537994623184204,0.07320089638233185,0.9067743420600891,-185.03003376,1229.60990724,-510.37696788000005,-303.36525336000005,-1808.7379642800001,1411.5391976399999,-457.70057424,13.36039692,66.75977653631284,set #1
1970-01-01 00:00:28.357409534,3.537748336791992,0.06660358607769012,0.9004941582679749,-78.99020688,1114.73432928,-510.27253212000005,-238.3090086,-2288.2922220600003,971.58063834,-413.567739,84.7874001,67.0391061452514,set #1
1970-01-01 00:00:28.367662248,3.5374343395233154,0.05997886881232262,0.8944485783576965,-192.3616032,679.19431632,-541.13657832,-315.01019472,-2077.8654468,732.2078212800001,-461.7740556,-104.01233232,67.31843575418993,set #1
1970-01-01 00:00:28.377421197,3.5370190143585205,0.05328100919723511,0.8884809613227844,-14.77010769,567.62282499,-328.36725948,-184.14039657,-3833.84180166,341.50423008,-274.30353366,29.46727173,67.59776536312849,set #1
1970-01-01 00:00:28.387428102,3.5364813804626465,0.04656750708818436,0.882561206817627,-77.62168752,204.3165813,-350.10414816,-200.90751564,-6197.8859007,-507.36272808,-254.99397456,-54.25598178,67.87709497206704,set #1
1970-01-01 00:00:28.397392091,3.535949468612671,0.03986760973930359,0.8768040537834167,-31.49459157,252.80704215,-293.51864763000003,-214.37243646000002,-4514.99251593,-665.90095806,-277.92832391999997,-151.4224647,68.15642458100558,set #1
1970-01-01 00:00:28.407530603,3.5354151725769043,0.033263057470321655,0.8713679909706116,-16.86951864,279.83360457000003,-302.67984279,-189.17773094999998,-4222.705873620001,-120.11719941,-272.40692544,-260.64724959,68.43575418994413,set #1
1970-01-01 00:00:28.417410192,3.53482985496521,0.02666722610592842,0.8660981059074402,22.681582560000003,146.12602992,-273.50826672,-181.8989952,-1538.75462208,90.23856816,-188.82532656,-475.58788991999995,68.71508379888267,set #1
1970-01-01 00:00:28.427686271,3.5342178344726562,0.019965413957834244,0.860822319984436,48.30652671,115.61966208,-248.70531465,-162.19412586,1052.16297147,19.89745953,-252.83475516,-529.17666633,68.99441340782123,set #1
1970-01-01 00:00:28.437130270,3.5336074829101562,0.013453740626573563,0.855787456035614,30.0892098,-2.7666717,-197.7957696,-159.433053,1977.0756213,225.9265749,-260.33848620000003,-422.89597349999997,69.27374301675977,set #1
1970-01-01 00:00:28.447505769,3.533027172088623,0.006914785131812096,0.8509607911109924,-36.310498380000006,-35.13975621,-221.04974541,-170.79525099,3017.98357146,275.08049478,-245.76450522000002,-368.01375585000005,69.55307262569832,set #1
1970-01-01 00:00:28.457472381,3.5324549674987793,0.00032582134008407593,0.8462339639663696,-7.84939857,-16.96685445,-200.53020156,-100.82577141,2407.6932207900004,359.04439857000006,-269.48034321,-153.60279909000002,69.83240223463687,set #1
1970-01-01 00:00:28.467512664,3.5318825244903564,-0.006368620321154594,0.8415692448616028,-67.6794612,-96.21860664,-199.54664808,-113.00615975999999,1083.96708888,297.97993368,-321.88061568000006,-157.18940016000002,70.11173184357541,set #1
1970-01-01 00:00:28.477318105,3.531419515609741,-0.013052825815975666,0.8370219469070435,1.2069524999999999,-14.7130971,-98.06421689999999,-65.9961198,1161.09302985,202.22952165,-238.7829483,-98.10347625,70.39106145251397,set #1
1970-01-01 00:00:28.487935123,3.531003952026367,-0.019772320985794067,0.832712709903717,-25.86607608,20.491134690000003,-114.56926143,-97.48953045,2036.09009409,276.99684519,-272.52536805,-142.79365737,70.6703910614525,set #1
1970-01-01 00:00:28.497359571,3.5305964946746826,-0.02653586119413376,0.8285009264945984,18.71826333,-26.12581725,-103.64790579,-99.74127696,2546.8956357,149.01069807000002,-286.40615211,-123.38615211000001,70.94972067039106,set #1
1970-01-01 00:00:28.508263883,3.530195713043213,-0.03320113569498062,0.8244052529335022,18.801339570000003,-51.66408858,-54.03111909,-88.67060826,2081.18672541,34.86705807,-193.49422638,-6.54882579,71.2290502793296,set #1
1970-01-01 00:00:28.517731723,3.529923677444458,-0.03992876783013344,0.8203916549682617,16.36574394,-92.50994844,-49.13441208,-96.84321815999999,1719.59936889,269.99379771,-181.5638409,-23.90379771,71.50837988826815,set #1
1970-01-01 00:00:28.527196226,3.529716968536377,-0.04660353809595108,0.8165844678878784,59.59861908,-51.310779,-25.288190460000003,-72.94986582,1771.21566882,377.75766678,-115.33918188,25.5192639,71.7877094972067,set #1
1970-01-01 00:00:28.537268934,3.529465436935425,-0.05336690694093704,0.8128532767295837,49.52548614,-139.46138856,-80.6371527,-119.62662035999999,1877.73296256,342.84377322,-177.63624996000001,-3.6519444000000005,72.06703910614524,set #1
1970-01-01 00:00:28.547514257,3.529136896133423,-0.05991408973932266,0.8092929124832153,11.17099425,-223.98631749,-97.78913196,-130.62141495,1598.72402118,388.89711471,-155.92810896,50.29887954,72.3463687150838,set #1
1970-01-01 00:00:28.557468471,3.5288095474243164,-0.06639698892831802,0.8058831691741943,32.914629149999996,-262.42255572000005,-63.79296495,-103.85774022,1435.2757379999998,616.3721483400001,-76.25392398,170.69692731,72.62569832402234,set #1
1970-01-01 00:00:28.567380247,3.5284762382507324,-0.07285016030073166,0.8026708364486694,45.80140461,-283.59356142,-106.91633667,-89.79822384,1452.9579881700001,604.96558902,-105.11077707,61.9690734,72.90502793296089,set #1
1970-01-01 00:00:28.577466783,3.5280017852783203,-0.07923846691846848,0.799597978591919,2.0066065500000008,-278.55476570999997,-118.01182224,-119.26091112,874.4965674900001,764.41567683,-6.562504650000001,124.00976757,73.18435754189943,set #1
1970-01-01 00:00:28.587311086,3.527425527572632,-0.08554179966449738,0.7966060042381287,13.541030099999997,-247.44749874000001,-88.05838158,-103.74926406,516.40896918,754.22426586,18.85897026,56.89235292000001,73.46368715083798,set #1
1970-01-01 00:00:28.597591457,3.5268049240112305,-0.09176769852638245,0.7937238812446594,26.22310665,-184.94543964000002,-106.41532239,-99.47391558000001,698.85496473,773.35824735,-12.5035053,11.53382178,73.74301675977654,set #1
1970-01-01 00:00:28.607592878,3.526216983795166,-0.09786634892225266,0.7910586595535278,-25.53468684,-75.95572608,-152.75200356,-145.91612100000003,844.89520284,709.1117740200001,-57.03534876,-134.73354804000002,74.02234636871508,set #1
1970-01-01 00:00:28.617411909,3.525603771209717,-0.10396789014339447,0.7885090112686157,75.04447119000001,-147.40504038,-75.23086116,-61.3969941,711.00087591,779.98599705,11.422286069999998,-16.54255785,74.30167597765363,set #1
1970-01-01 00:00:28.627640781,3.5249390602111816,-0.10997417569160461,0.7860221862792969,-28.33397112,-150.57240588000002,-82.90368489,-77.40967767000001,1370.9955905099998,760.2481485300001,-63.057426510000006,-54.72149046,74.58100558659217,set #1
1970-01-01 00:00:28.637345609,3.5243546962738037,-0.1158548966050148,0.7836604118347168,-42.91767558,-220.93610136,-92.42447526,-81.2188767,1260.67776237,653.21298783,-61.77136173,-108.74647446,74.86033519553072,set #1
1970-01-01 00:00:28.647830066,3.5238945484161377,-0.1216924786567688,0.7814905643463135,-1.3522446599999993,-128.94087336,-132.97595766,-134.39576358000002,633.01817982,684.10712214,-112.34418546,-151.46397864,75.13966480446926,set #1
1970-01-01 00:00:28.657471952,3.52353835105896,-0.1274818331003189,0.7794675827026367,45.97624512,-115.48944576000001,-83.00057376000001,-71.32434816,449.90439312,643.50758784,-67.5246936,-117.47181888,75.41899441340782,set #1
1970-01-01 00:00:28.667291460,3.5231738090515137,-0.13325971364974976,0.7774668335914612,30.6130656,-121.920123,-90.6602814,-47.1938688,-83.2394316,720.0790272,-63.370164,-125.6936694,75.69832402234637,set #1
1970-01-01 00:00:28.677413520,3.522855520248413,-0.1389610916376114,0.7755468487739563,46.7864592,-129.1600752,-33.644270399999996,-38.6584536,-610.6043736,673.1791872,-40.797276000000004,-102.565008,75.97765363128491,set #1
1970-01-01 00:00:28.687304553,3.5226519107818604,-0.14464426040649414,0.773770272731781,54.888981030000004,-122.43000783000001,-39.3012165,-45.10682475,-273.88308129,543.66,-39.22315176,-140.40887834999998,76.25698324022346,set #1
1970-01-01 00:00:28.697322664,3.5224595069885254,-0.15037734806537628,0.7721236944198608,54.26768568,-91.07345208000001,20.72869344,-2.161205279999999,286.61789832,507.45714552000004,-26.65630656,-145.95311952000003,76.536312849162,set #1
1970-01-01 00:00:28.707974252,3.5223021507263184,-0.15599457919597626,0.7705371379852295,18.35496468,92.02547172000001,55.03858152,0.39583440000000003,553.10807448,248.0575032,-21.293539799999998,-96.36921372,76.81564245810056,set #1
1970-01-01 00:00:28.717302856,3.5221638679504395,-0.1614772528409958,0.7690623998641968,0.9772432799999997,-91.06716528,57.28095984,-13.47952008,864.19869432,148.34928576000001,-13.351428479999997,-152.94466512,77.0949720670391,set #1
1970-01-01 00:00:28.727480230,3.5220327377319336,-0.16690301895141602,0.7677360773086548,-15.223178100000002,-53.6722446,65.8316373,-4.2768219,1096.3198584,99.0744378,-50.5570065,-161.4545322,77.37430167597765,set #1
1970-01-01 00:00:28.737515745,3.521894931793213,-0.17254577577114105,0.7664228677749634,-19.15148625,-171.48662505000001,53.3838708,-64.9320048,1365.7060131,105.73897425,-67.72955085000001,-128.82595635,77.6536312849162,set #1
1970-01-01 00:00:28.747525749,3.521665334701538,-0.178094744682312,0.7650789618492126,41.19119901,-89.20263299999999,108.07692597,39.370831110000005,1381.67140956,168.34781028,-28.283399820000003,-85.5221055,77.93296089385474,set #1
1970-01-01 00:00:28.757560071,3.521400213241577,-0.183460533618927,0.7638046741485596,10.696762829999999,-130.15732626000002,98.72651061,24.78154146,1274.32842498,259.40443386000004,-9.44474778,-110.22943386,78.2122905027933,set #1
1970-01-01 00:00:28.767689523,3.5211901664733887,-0.18875136971473694,0.7626413702964783,8.72600079,-179.45531097,81.59803236,-8.65092423,1005.61350513,313.69370955,-28.78940805,-80.84959116,78.49162011173183,set #1
1970-01-01 00:00:28.777361211,3.5209693908691406,-0.19396400451660156,0.7615786194801331,0.7029590100000007,-133.29045054,32.51017107,-20.80046748,602.86705284,440.24757114,-51.9810603,-82.96314702,78.77094972067039,set #1
1970-01-01 00:00:28.787018594,3.5206851959228516,-0.19911842048168182,0.7605323791503906,11.76774768,-154.66311354,44.2110591,-9.21814608,876.9191706600001,332.69900664,-68.585166,-63.502252320000004,79.05027932960894,set #1
1970-01-01 00:00:28.797392663,3.5204081535339355,-0.20409321784973145,0.7595519423484802,-42.254591340000005,-188.39437422,20.53328862,-66.15586848000001,745.27569285,388.73090997,-105.53580141,-69.25149426,79.32960893854748,set #1
1970-01-01 00:00:28.807327327,3.520057439804077,-0.20894400775432587,0.7587125897407532,55.5205482,-113.1181506,73.1408223,7.089109949999999,672.72365784,409.14104127,-27.648396359999996,10.546425630000002,79.60893854748603,set #1
1970-01-01 00:00:28.817426023,3.5196311473846436,-0.21371018886566162,0.7579483985900879,40.07955627,-167.3658558,62.47263867,-0.64372425,377.94089541,445.4974485,-10.053248789999998,52.05721872000001,79.88826815642457,set #1
1970-01-01 00:00:28.827530679,3.5191259384155273,-0.21839942038059235,0.7572000026702881,32.44178886,-163.00319646,17.631202289999997,-14.748475169999999,324.57545445,512.2734017700001,-21.68217012,38.64818178,80.16759776536313,set #1
1970-01-01 00:00:28.837453899,3.518644332885742,-0.22295953333377838,0.7565353512763977,31.96202061,-183.71343198,26.87404122,-34.515,189.00482523,576.72564963,-6.0159274499999995,-22.615793070000002,80.44692737430167,set #1
1970-01-01 00:00:28.847363529,3.5182244777679443,-0.2274383306503296,0.7560053467750549,54.13980273,-123.76855218,53.942499780000006,-31.41381594,125.63690841,614.5656574200001,37.682236020000005,-54.1251321,80.72625698324022,set #1
1970-01-01 00:00:28.857817230,3.5177557468414307,-0.2319590002298355,0.7555428147315979,30.1257801,-149.3856897,39.8004165,-23.4147576,-46.226317800000004,577.8726134999999,45.7750683,-91.3328559,81.00558659217877,set #1
1970-01-01 00:00:28.867458162,3.5170083045959473,-0.2364034205675125,0.7550099492073059,58.75545624,-99.61397004,49.9020795,-5.570208539999999,152.02162325999998,498.10007832,29.62528686,-117.11181221999999,81.28491620111731,set #1
1970-01-01 00:00:28.877290067,3.5163371562957764,-0.24075068533420563,0.7545198202133179,-4.21870254,-169.12489152,-39.623738700000004,-58.64746836,337.03129746,234.41376582,-14.28383814,-140.61127938,81.56424581005587,set #1
1970-01-01 00:00:28.887852964,3.515761137008667,-0.2450200468301773,0.75412917137146,125.09949036,-57.3392898,29.13561456,38.701568879999996,-68.01986724,331.54744896,74.10015132000001,-21.43859172,81.8435754189944,set #1
1970-01-01 00:00:28.897273597,3.515207290649414,-0.24923713505268097,0.7537972331047058,52.996476390000005,-213.55061793000002,-29.22413208,-8.833948110000001,179.23384908,275.46137736,27.57981603,-105.73402358999999,82.12290502793296,set #1
1970-01-01 00:00:28.907759008,3.5146167278289795,-0.2533545196056366,0.7533949613571167,31.119154560000002,-272.8085568,-27.96146496,0.5884694400000008,-306.00938784,252.15343296,48.35908896,-63.73516032,82.4022346368715,set #1
1970-01-01 00:00:28.917407569,3.5140790939331055,-0.25733327865600586,0.7529923915863037,3.9363253799999995,-267.12190518,-42.56053035,1.3031132400000018,-600.9034215600001,290.63175102,45.138662010000004,-49.27908765,82.68156424581005,set #1
1970-01-01 00:00:28.927707967,3.5135810375213623,-0.2611992061138153,0.7526232004165649,-13.26332319,-207.51257436,-73.5546435,-43.43485848,-745.18639377,347.65574883000005,-35.40192942,-146.42078646,82.9608938547486,set #1
1970-01-01 00:00:28.937212762,3.5129988193511963,-0.26492175459861755,0.7522582411766052,-31.4113488,-282.05677422,-25.63199184,-65.44103748,-630.51388998,351.93347514000004,-43.036763640000004,-140.0222616,83.24022346368714,set #1
1970-01-01 00:00:28.947828826,3.5123775005340576,-0.2684963643550873,0.7518590092658997,92.51437728,-148.62859128,260.41272972,70.91144346,-1013.5030971000001,396.61070436,48.9519498,-15.64398732,83.5195530726257,set #1
1970-01-01 00:00:28.957394657,3.511742115020752,-0.2718367576599121,0.7514501810073853,36.70558632,-257.63335611,301.67068581,42.01107846,-1110.12303675,444.08615706,-24.67832991,-94.34483252999999,83.79888268156424,set #1
1970-01-01 00:00:28.967300710,3.511165142059326,-0.2750474512577057,0.751114547252655,98.85175170000001,-249.96092550000003,393.6709842,105.8072769,-864.9832152,468.52467870000004,76.1506629,25.0446456,84.07821229050279,set #1
1970-01-01 00:00:28.977456865,3.5105974674224854,-0.27809828519821167,0.7508342862129211,50.76421155,-277.64398935,333.41327565,67.1809359,-789.3429531,510.78152775,29.857980749999996,-20.0520684,84.35754189944133,set #1
1970-01-01 00:00:28.987500963,3.510014533996582,-0.28096258640289307,0.7505469918251038,-69.77319414,-526.8047456099999,194.24366091,-44.22819414,-821.7360091200001,578.6258423400001,-155.00096352,-243.13307655,84.63687150837988,set #1
1970-01-01 00:00:28.997356233,3.5093939304351807,-0.2835932672023773,0.7502334713935852,187.99188915,-114.82128606,311.31528129000003,126.68204172,-876.4863182400001,699.7086174000001,38.488456500000005,14.564493449999999,84.91620111731844,set #1
1970-01-01 00:00:29.007372198,3.5088324546813965,-0.28611811995506287,0.7500163912773132,165.6659784,-259.6727328,257.87475168000003,134.88657624,-172.37125776000002,821.5585560000001,52.10166936,47.32720512,85.19553072625698,set #1
1970-01-01 00:00:29.017324981,3.5082473754882812,-0.28846704959869385,0.7498335838317871,113.1974259,-642.35902029,19.208759699999998,-24.822595979999996,-267.37801272,525.80898747,-163.80932763,-206.95422617999998,85.47486033519553,set #1
1970-01-01 00:00:29.027444419,3.5076215267181396,-0.29075881838798523,0.7496212720870972,301.94867118,-399.1840866,176.25760893,189.17078349,-1106.9269539900001,236.10128958,163.92755886,271.61082273,85.75418994413407,set #1
1970-01-01 00:00:29.037493524,3.5069642066955566,-0.292890727519989,0.749387800693512,1.6619740800000002,-619.25085924,-205.23355164000003,-172.39725672,-1011.5140386,533.96356416,-366.86382096,-432.32773116000004,86.03351955307262,set #1
1970-01-01 00:00:29.047769126,3.5064988136291504,-0.29492834210395813,0.7492485046386719,-117.75171173999999,-626.46301926,-240.76851396,-191.22412685999998,-1118.14447758,459.70716558,-236.07625158,-259.22210964,86.31284916201116,set #1
1970-01-01 00:00:29.058669147,3.5060603618621826,-0.29690009355545044,0.7491509318351746,78.04140629999999,-194.0334942,-261.37969884,-150.82340481,-1403.47360647,55.44150846,-178.10386932,-179.60080398,86.59217877094972,set #1
1970-01-01 00:00:29.067298231,3.5054874420166016,-0.2987392842769623,0.7490003108978271,-15.858917100000001,-450.32894088,-287.95570791,-164.95177764,-1475.06721336,-356.09284737,-288.41404917,-263.71739042999997,86.87150837988827,set #1
1970-01-01 00:00:29.077487049,3.5049936771392822,-0.3005189299583435,0.7488346099853516,255.12169215,-60.81150114,-108.615,25.512709949999998,-2345.63623437,-992.319822,-10.153167960000001,-15.446488590000001,87.15083798882681,set #1
1970-01-01 00:00:29.088200387,3.50467848777771,-0.30219700932502747,0.7487499713897705,60.95307582,89.60579043,-10.237228170000002,106.33180974,-2321.82781116,-1599.20933835,90.58758227999999,110.59895925,87.43016759776536,set #1
1970-01-01 00:00:29.097549734,3.504441738128662,-0.3038838803768158,0.7487165927886963,192.74931078,549.40742298,-118.36364826,-35.963495099999996,-2755.1508504,-1777.9830276,-60.495739979999996,8.57927694,87.7094972067039,set #1
1970-01-01 00:00:29.107732591,3.5041794776916504,-0.3054162561893463,0.7486588358879089,104.89146135,511.74624189,-143.59395687,-42.0663009,-3164.87404935,-1953.35414976,-255.73742961,-253.0215597,87.98882681564245,set #1
1970-01-01 00:00:29.118284282,3.503923177719116,-0.3068561553955078,0.7485630512237549,-42.7414533,706.63320234,-131.72149146,-21.695831820000002,-3000.26457978,-1859.5649045999999,-226.98718925999998,-52.27627158,88.268156424581,set #1
1970-01-01 00:00:29.127523479,3.5037286281585693,-0.3083103597164154,0.7484779953956604,-238.38053226,489.72781182,-276.16371237000004,-158.25925986000001,-2839.17085842,-1760.86249911,-352.35584319000003,-235.11402329999999,88.54748603351955,set #1
1970-01-01 00:00:29.137460765,3.503598213195801,-0.3096182942390442,0.74843829870224,-135.07025610000002,805.0891036500001,-238.5269835,-61.452066,-2258.17481175,-1636.721736,-299.81819010000004,-277.8977604,88.8268156424581,set #1
1970-01-01 00:00:29.147513208,3.5033960342407227,-0.3107963800430298,0.7483356595039368,9.10680576,1398.3168763200001,-138.7480692,72.47962488,-2042.54183952,-1429.47585456,-198.95081543999999,-174.6206904,89.10614525139664,set #1
1970-01-01 00:00:29.157526788,3.5031683444976807,-0.3118634819984436,0.7481682300567627,-128.27146019999998,796.28612388,-189.69311088,32.982942720000004,-2024.0723568,-1571.01412572,-136.03336968000002,-140.30592420000002,89.3854748603352,set #1
1970-01-01 00:00:29.167614755,3.5029757022857666,-0.31282171607017517,0.7479954957962036,-451.1180388,-146.62071840000002,-339.53975445,-124.21819215,-2060.02792515,-1895.1123204,-292.67906070000004,-330.49622775,89.66480446927373,set #1
1970-01-01 00:00:29.177466926,3.502756357192993,-0.31367629766464233,0.7478240132331848,-191.54538467999998,1508.01091116,-423.81997866,-210.94295585999998,-2079.71522772,-1989.15250716,-482.55064103999996,-362.75007834,89.94413407821229,set #1
1970-01-01 00:00:29.187535343,3.502488613128662,-0.3144178092479706,0.7476205825805664,-265.84378275,853.6836527700001,-136.59324549000002,71.26540473,-2389.6208247600002,-1624.89648945,-321.96121776,-167.51878377,90.22346368715083,set #1
1970-01-01 00:00:29.197583971,3.5022404193878174,-0.3149716556072235,0.747381329536438,-195.62520939,301.68722532,-245.77602075,-75.63777467999999,-1378.3571458800002,-1497.48094236,-501.65772228,-400.5197118,90.50279329608938,set #1
1970-01-01 00:00:29.207351264,3.5020036697387695,-0.3153824508190155,0.7471436262130737,-1.580866559999997,338.14868256,-182.83709184,-38.456845439999995,-1728.0928579200001,-1204.80766848,-507.86265504,-426.34279584,90.78212290502793,set #1
1970-01-01 00:00:29.217635450,3.501770257949829,-0.31566452980041504,0.7469267249107361,-411.8536305,18.9684495,-331.56316050000004,-195.2086305,-1549.4341004999999,-915.980208,-629.417685,-453.869403,91.06145251396647,set #1
1970-01-01 00:00:29.227502164,3.50152325630188,-0.3157951533794403,0.7466939091682434,-317.6423406,-190.22201016,-332.65729536000003,-75.30455712,-2941.0051008,-982.0453188,-737.01302688,-312.81207048000005,91.34078212290503,set #1
1970-01-01 00:00:29.237363634,3.501278877258301,-0.3157966434955597,0.7464398145675659,12.515887800000002,-343.4829957,-619.26623928,-166.06858943999998,-2252.72881704,-803.04562416,-1105.18860972,-332.68726452,91.62011173184356,set #1
1970-01-01 00:00:29.247607049,3.501023769378662,-0.3156723380088806,0.7461853623390198,241.57699644,-523.05914934,-1038.85413528,-214.15832022,-1718.82859941,-386.02666011,-1105.18819749,-556.4087614800001,91.89944134078212,set #1
1970-01-01 00:00:29.257835445,3.500788688659668,-0.31544578075408936,0.7459691166877747,382.48641405,-868.3867023,-388.70146575,-119.61641055,-1215.10543635,129.03329595,-848.8965849,-480.05040915,92.17877094972066,set #1
1970-01-01 00:00:29.267251787,3.50057053565979,-0.31515204906463623,0.7457376718521118,-32.07478248,-684.3308951700001,-430.39719918,-306.98031936,-1860.60852939,339.71850393,-942.5395394999999,-650.71653426,92.45810055865921,set #1
1970-01-01 00:00:29.277430353,3.5003609657287598,-0.31475988030433655,0.7454751133918762,373.70029125,-160.84260231,54.06161709,73.99988232,-1762.0800124200002,443.33107806,-400.79548314,-223.77566913,92.73743016759776,set #1
1970-01-01 00:00:29.287398872,3.5002076625823975,-0.31429681181907654,0.7452403903007507,251.18654808,274.33829904000004,-32.69636448,-45.35816688,-1106.50836192,499.59204672,-670.29152736,-478.16184312,93.0167597765363,set #1
1970-01-01 00:00:29.297456083,3.5001180171966553,-0.31379014253616333,0.7450441718101501,485.26182315,548.34969969,172.47766614,63.43181481,-1822.48790295,440.00968439999997,-685.12191306,-360.41127213,93.29608938547486,set #1
1970-01-01 00:00:29.307664451,3.4999709129333496,-0.31326740980148315,0.7448228001594543,-398.75819841000003,-400.86690579,-154.89471114,-322.05502836,-2520.3221897099997,543.5835748200001,-916.31728929,-524.08731765,93.5754189944134,set #1
1970-01-01 00:00:29.317218837,3.499894380569458,-0.3126470446586609,0.7446008324623108,803.53715676,949.09196031,425.36574989999997,233.03036757,-2023.73424591,926.01826785,-480.39302492999997,-666.90488592,93.85474860335195,set #1
1970-01-01 00:00:29.327445802,3.4998409748077393,-0.31194254755973816,0.7444136142730713,169.88800607999997,740.5448770200001,398.97183222,-31.04397582,-722.9336634000001,1331.38229328,-470.04493458,-536.6951031,94.1340782122905,set #1
1970-01-01 00:00:29.337318239,3.499791383743286,-0.3111947774887085,0.7442442178726196,75.94526433,13.499151900000001,594.21135969,151.87703856,-323.84790827999996,1839.87283155,-247.36326381,-444.63139578000005,94.41340782122904,set #1
1970-01-01 00:00:29.347345886,3.4998056888580322,-0.31036293506622314,0.7441075444221497,-248.21302116,-14.941064579999999,610.2887887200001,106.12159506,2030.14390176,3061.95518304,-437.5479108,-934.85147652,94.6927374301676,set #1
1970-01-01 00:00:29.357558069,3.4997963905334473,-0.30950263142585754,0.7439497113227844,-197.48369316,-277.37839428,1019.33804193,638.57416155,568.52714529,1792.8418287,-224.77615251,-938.29379436,94.97206703910614,set #1
1970-01-01 00:00:29.367467460,3.4997570514678955,-0.3085536062717438,0.7437813878059387,-134.2066986,179.14684319999998,1062.6605886,844.9740156,-64.62898260000003,996.9331866,225.38468160000002,-364.83296459999997,95.25139664804469,set #1
1970-01-01 00:00:29.377173242,3.4996938705444336,-0.30764341354370117,0.7436269521713257,-309.45193032000003,-960.92549124,1066.38682644,-7.978261199999999,1760.30513958,974.5330686,136.16552586,-398.42211318,95.53072625698323,set #1
1970-01-01 00:00:29.387374935,3.499744415283203,-0.30659493803977966,0.7435237169265747,501.06451785,1023.6217251,2488.51546905,240.81080400000002,-2440.85647455,1809.3039003,-247.75505429999998,-144.896661,95.81005586592178,set #1
1970-01-01 00:00:29.397446689,3.499772787094116,-0.30551522970199585,0.7433813214302063,-602.35169436,-543.50742732,2405.56065906,-520.65415038,-1856.93657526,2635.23810927,-251.98396470000003,-700.0191396900001,96.08938547486034,set #1
1970-01-01 00:00:29.407321271,3.499751091003418,-0.30444514751434326,0.7432246804237366,626.16359676,961.3617140399999,2482.37494986,-86.25161376,-2501.4842716499998,2619.59317074,288.44561811,-503.93817240000004,96.36871508379888,set #1
1970-01-01 00:00:29.417381343,3.499760389328003,-0.30331122875213623,0.7430965900421143,728.18728749,1438.4867285100001,1647.49451334,-214.48750089,426.77137581,4357.8861144,517.36498281,-295.47045762000005,96.64804469273743,set #1
1970-01-01 00:00:29.427616415,3.4997777938842773,-0.3021703362464905,0.7429705858230591,80.4399219,1110.2346372,464.40185610000003,-635.67387975,1594.44290265,453.83586105000006,-50.764968149999994,19.1573967,96.92737430167597,set #1
1970-01-01 00:00:29.437194404,3.499788761138916,-0.300905704498291,0.7428085803985596,589.70709564,1269.14364408,850.3632758399999,-157.31056224000002,-176.79113244,-4444.73771508,412.43294976,-68.55805944,97.20670391061452,set #1
1970-01-01 00:00:29.447446880,3.4997646808624268,-0.2996923625469208,0.7426497936248779,1272.6625392,2095.709616,1008.3788208,134.4183984,-615.5966544,-4407.6895824,1188.2234208,24.3706944,97.48603351955306,set #1
1970-01-01 00:00:29.458673534,3.4997482299804688,-0.2983350455760956,0.7425407767295837,1678.29767976,2681.94999228,290.9390874,-207.48866112,364.67992002,-4818.474408540001,970.5947394,89.71793063999999,97.76536312849161,set #1
1970-01-01 00:00:29.467178163,3.499654769897461,-0.2969858646392822,0.742413341999054,-866.93856795,577.19185641,-1205.45619675,-1258.5428859899998,1045.66943364,-4254.04619757,503.28607991999996,-143.82023448,98.04469273743017,set #1
1970-01-01 00:00:29.477558670,3.499596357345581,-0.2954551577568054,0.7420880794525146,474.55954260000004,959.3494131,-495.9686472,162.3671088,879.6760245,-3506.3420457,657.4960080000001,287.219244,98.32402234636871,set #1
1970-01-01 00:00:29.487478075,3.4994354248046875,-0.2939317524433136,0.7421898245811462,-202.78289850000002,534.2551500000001,-952.8452895,-145.52985525,-1.282612499999999,-3559.7523195000003,464.24390999999997,-3.5471085000000073,98.60335195530726,set #1
1970-01-01 00:00:29.497411785,3.4992523193359375,-0.2922828793525696,0.74209064245224,3.0760567499999993,-46.154386200000005,-245.9654223,-139.00167255,-367.06163325,-3542.8688490000004,741.4127116500001,260.355771,98.8826815642458,set #1
1970-01-01 00:00:29.507329998,3.4991328716278076,-0.29050368070602417,0.7420392036437988,76.54114884,152.74287210000003,-871.7162617800001,-456.20642184,-1809.14522022,-3651.6637341600003,413.69267549999995,96.09203526,99.16201117318435,set #1
1970-01-01 00:00:29.518534955,3.498917818069458,-0.2886617183685303,0.7419527769088745,953.4050526,470.3033244,-489.48118245,-18.172718849999995,1231.90963935,-1611.1053114000001,252.2749866,579.6705759,99.4413407821229,set #1
1970-01-01 00:00:29.527410564,3.498796224594116,-0.2866989076137543,0.7419159412384033,175.04984172000002,-226.69233756,-441.19931856,-119.98376208,-574.9668444,-1494.4086721200001,598.93535988,613.4114828400001,99.72067039106145,set #1
1970-01-01 00:00:29.537401971,3.498717784881592,-0.2847103774547577,0.7419087886810303,450.23155008000003,265.51172583,-27.177212790000002,253.32826389000002,825.52465281,-1385.41411437,744.3449348400001,1065.2633616300002,100.0,set #1
1970-01-01 00:00:29.537401971,3.498717784881592,-0.2847103774547577,0.7419087886810303,450.23155008000003,265.51172583,-27.177212790000002,253.32826389000002,825.52465281,-1385.41411437,744.3449348400001,1065.2633616300002,0.0,set #2
1970-01-01 00:00:29.547317800,3.498656749725342,-0.28267133235931396,0.7419343590736389,322.513308,134.602416,-238.412616,-11.392992000000003,1463.290998,-1787.309238,188.121492,782.56074,0.2915451895043732,set #2
1970-01-01 00:00:29.557418880,3.4985687732696533,-0.2806504964828491,0.7419481873512268,654.1181712,329.84465280000006,-341.30940480000004,33.45469920000002,819.0690144,-1132.4788176,154.7174304,694.2583440000001,0.5830903790087464,set #2
1970-01-01 00:00:29.567696866,3.498570442199707,-0.2785319983959198,0.7419862151145935,799.64435226,557.65469058,448.92322566,1095.52966848,-782.9115153600001,-1382.8188972,544.5207814800001,1023.27099966,0.8746355685131195,set #2
1970-01-01 00:00:29.577330646,3.4985644817352295,-0.27645793557167053,0.742030143737793,-222.94165608,-86.67769265999999,19.27337568,1128.68501148,-539.63733642,-986.13700926,197.86828308,448.5250926,1.1661807580174928,set #2
1970-01-01 00:00:29.587790069,3.498593807220459,-0.2742938697338104,0.7421029806137085,-392.18531625,-54.62079714000001,-213.09507726,699.92176527,746.9215513500001,-454.25698812,300.57612351,297.03621519,1.457725947521866,set #2
1970-01-01 00:00:29.597384033,3.498600721359253,-0.27195581793785095,0.7421855926513672,573.9942296400001,96.79675005,-206.09017689,771.6005013600001,144.93627486000003,-870.0677224200001,425.85503454,577.79023341,1.749271137026239,set #2
1970-01-01 00:00:29.607347068,3.498608350753784,-0.2695486843585968,0.742271900177002,-1480.596741,-2461.54924236,-1862.38041756,-884.7390864,17.57594748,-630.4226526000001,-356.76190368000005,-708.45722532,2.0408163265306123,set #2
1970-01-01 00:00:29.617299375,3.4985458850860596,-0.2669343948364258,0.7424014806747437,-1086.91951875,-2352.738375,-536.9583375,66.64344375,2602.14849375,270.90984375,369.85479375,-676.21100625,2.3323615160349855,set #2
1970-01-01 00:00:29.627756175,3.498429298400879,-0.264104425907135,0.7423524856567383,-1191.4629382500002,-1935.32477775,-86.7795435,68.750916,-38.31617399999999,207.68628075,594.461283,310.98054975,2.623906705539359,set #2
1970-01-01 00:00:29.637664375,3.498135805130005,-0.26118332147598267,0.7427126169204712,314.98228125,-118.10053124999996,110.80143749999999,205.2028875,2392.00674375,899.422875,347.51047500000004,439.20703125,2.915451895043732,set #2
1970-01-01 00:00:29.647596178,3.497999429702759,-0.2579375207424164,0.7428972125053406,292.37672958,466.44811668,184.04396010000002,297.61618692,3811.65509556,-120.15533946,-13.222245659999999,459.7678371,3.2069970845481053,set #2
1970-01-01 00:00:29.658291635,3.4979372024536133,-0.2543865144252777,0.7429671287536621,-2458.35520905,544.3055046,-587.1122283,-615.33755205,1330.8618102,-545.29918755,-216.07779374999998,166.14134355,3.498542274052478,set #2
1970-01-01 00:00:29.667521533,3.4981577396392822,-0.25039151310920715,0.7426138520240784,-1964.26188777,5155.10182005,-20.28685854,443.96430311999995,3679.9872993000004,711.2280204900001,169.44575505000003,646.63864473,3.7900874635568513,set #2
1970-01-01 00:00:29.677426872,3.498279094696045,-0.24634572863578796,0.7433149218559265,-2480.3361273600003,2783.15663496,-652.55814936,-93.45671712000001,4345.8952648800005,14.244422399999998,-251.69968512,422.07839856,4.081632653061225,set #2
1970-01-01 00:00:29.687395391,3.4984943866729736,-0.24242466688156128,0.7438169121742249,-2300.60121681,1214.89028661,-373.18809489,-34.30091730000001,2147.09947374,1694.08406154,-428.36329809,561.75611934,4.373177842565598,set #2
1970-01-01 00:00:29.697421607,3.4988131523132324,-0.23822443187236786,0.7444061636924744,-2300.68118046,668.96124828,-459.48009159,-398.05585482,2706.27563427,875.4035312100001,-32.97888399,578.66446404,4.664723032069971,set #2
1970-01-01 00:00:29.707623062,3.499168634414673,-0.23377518355846405,0.7450875043869019,-2096.9510133000003,-1090.23553938,-1184.22970692,-1216.58081064,767.24677302,1584.8099709,-494.72293494,397.07479734,4.956268221574344,set #2
1970-01-01 00:00:29.717446146,3.499629259109497,-0.22893749177455902,0.7459260821342468,-665.35612182,-91.64481768000002,-423.36510528,-96.85397982,754.52368056,2556.0900612,-303.8576775,1060.63824906,5.247813411078718,set #2
1970-01-01 00:00:29.727318820,3.5000522136688232,-0.22370868921279907,0.7468843460083008,-1714.8362478000001,-898.1007282,-822.4619207999999,-837.2008632000001,1765.413195,1624.8753222,380.5605414,749.1401034,5.539358600583091,set #2
1970-01-01 00:00:29.737384376,3.5004372596740723,-0.21811868250370026,0.7479680776596069,-821.61354912,-2753.6096889600003,-347.32674288000004,-641.5598342400001,333.01459464000004,1569.72815376,908.9681328,768.98355768,5.830903790087464,set #2
1970-01-01 00:00:29.747781095,3.5007071495056152,-0.2121710330247879,0.7491867542266846,-1196.2854559500001,-335.56721055,-718.8624027000001,-1216.9428453,766.9570974000001,1349.7008694,174.24834765000003,228.60208605,6.122448979591837,set #2
1970-01-01 00:00:29.757589874,3.500887870788574,-0.20599058270454407,0.7505427002906799,-223.16209265999998,-2386.64106252,327.46018032,-269.05965138,295.78682172000003,1340.8361623800001,1539.71150268,-671.96914278,6.413994169096211,set #2
1970-01-01 00:00:29.767215547,3.5009942054748535,-0.19958621263504028,0.7519968748092651,-732.19250871,-3247.0891011,255.72642302999998,-676.84688955,-108.38129523,1402.18151892,817.4709897900001,-152.78464851,6.705539358600584,set #2
1970-01-01 00:00:29.777370748,3.5011072158813477,-0.19304034113883972,0.7535805106163025,-199.30055808,-1520.3287008,-116.28891924,-1384.121895,1066.76663652,1906.62642612,168.17501376,-1429.39900272,6.997084548104956,set #2
1970-01-01 00:00:29.787523326,3.501229763031006,-0.1862892359495163,0.7553243041038513,-938.25801576,3731.07091812,-255.1640286,-869.505,1749.91447878,1601.7474462599998,-883.2728338200001,-301.09530126,7.288629737609329,set #2
1970-01-01 00:00:29.797520933,3.501535654067993,-0.17941667139530182,0.7572569847106934,-1834.1618314500001,2561.4239086800003,-37.119975360000005,-638.74931913,-2364.11118957,1102.71310461,627.22659909,-656.91651519,7.580174927113703,set #2
1970-01-01 00:00:29.807523069,3.5019214153289795,-0.17238345742225647,0.7593274116516113,-45.146616449999996,-340.55414444999997,687.50236269,679.23038625,-2202.36317574,1227.7593213599998,1418.7597528,-931.78864272,7.871720116618076,set #2
1970-01-01 00:00:29.818220195,3.5023787021636963,-0.16538749635219574,0.761534571647644,507.4561479,-5712.7501002,-400.86894900000004,-286.34990474999995,1264.58548515,862.47701865,771.78560355,-1886.6771995499998,8.16326530612245,set #2
1970-01-01 00:00:29.827585754,3.50289249420166,-0.15836429595947266,0.7638864517211914,1364.02516614,-3022.7890368,25.387537499999997,87.35710152,1795.0844925000001,-14.161474080000001,-901.62100002,-1319.0686493399999,8.454810495626823,set #2
1970-01-01 00:00:29.837327537,3.5034420490264893,-0.15123191475868225,0.7664032578468323,1632.62836893,-3746.06877138,-1190.1792840599999,-803.66681616,369.55282650000004,1913.66162637,-988.52514657,-1516.26762261,8.746355685131196,set #2
1970-01-01 00:00:29.847817478,3.5040876865386963,-0.14405889809131622,0.7690343856811523,4777.77270048,-309.57326322,41.835287519999994,-957.09970824,3355.45807896,1844.2785028199999,-924.4574859,-1399.51067724,9.03790087463557,set #2
1970-01-01 00:00:29.857752857,3.5048160552978516,-0.13676942884922028,0.7718183398246765,4650.74765454,-212.69095497,129.13732065,25.889829809999988,1565.16076587,1546.79960643,-373.53923295,-2596.02829512,9.329446064139942,set #2
1970-01-01 00:00:29.867345390,3.5055160522460938,-0.1294599324464798,0.7747048139572144,3907.4575371,-1591.3023165,96.6422652,614.9923767,1360.2591405,1059.8886285,-398.9152401,-1814.1588815999999,9.620991253644315,set #2
1970-01-01 00:00:29.877465543,3.5061421394348145,-0.12210266292095184,0.7776917219161987,2351.48824599,-3913.38160083,-1755.5022041700001,-1169.9868901500001,1780.92596877,966.88492992,-810.3136594800001,-1710.7651181400001,9.912536443148689,set #2
1970-01-01 00:00:29.887411174,3.5067787170410156,-0.11452674120664597,0.7808961272239685,1495.9421973600001,-2950.54571214,-511.61936748000005,-291.46205322,1979.54771586,403.00757172000004,-178.25691624,-1113.53676564,10.204081632653061,set #2
1970-01-01 00:00:29.897670087,3.5073115825653076,-0.10688059031963348,0.7841979265213013,507.33762768,-3667.12624005,-441.86186655,-196.6519113,3424.3125290400003,429.92128023,127.11551034,-778.4381736299999,10.495626822157435,set #2
1970-01-01 00:00:29.907488403,3.5077009201049805,-0.0991239994764328,0.7876390814781189,425.7673056,-1584.83142948,-190.86740439,352.26950226,1670.6250678000001,379.02223983000005,134.43744756,211.67968536,10.787172011661808,set #2
1970-01-01 00:00:29.917380151,3.5080199241638184,-0.09121423959732056,0.7912516593933105,347.92434729,-2246.80343004,-707.64469425,15.35464008,2051.70872283,330.28540545000004,-263.62368162,-523.30461183,11.078717201166182,set #2
1970-01-01 00:00:29.927426156,3.5080606937408447,-0.08315195143222809,0.7949481010437012,2277.04234056,-147.63811764000002,-1434.71498664,55.440839999999994,1826.00205996,900.88021764,-1310.114832,524.865315,11.370262390670554,set #2
1970-01-01 00:00:29.937610206,3.508305788040161,-0.07482975721359253,0.7990022897720337,2987.98577922,-2233.5654198,-928.6843152600001,925.20759708,800.2159113,343.32978108000003,-759.67814988,709.97937504,11.661807580174928,set #2
1970-01-01 00:00:29.947577772,3.5085129737854004,-0.06630761176347733,0.803257167339325,287.44479348000004,-2703.72502608,-1283.72089716,-306.24767472,-249.49958748,287.25272316,-710.081892,37.0716216,11.9533527696793,set #2
1970-01-01 00:00:29.958063182,3.508617401123047,-0.05754968523979187,0.8077811002731323,-351.0488085,-332.11150518,-800.1119786400001,415.86972024,-120.11135682,127.58175143999999,302.94454476000004,523.7841336,12.244897959183675,set #2
1970-01-01 00:00:29.967417774,3.5088164806365967,-0.04841436445713043,0.8126505017280579,1019.1840110400001,1206.53659854,-568.96429278,793.78801476,-1721.64202392,251.24324862,393.89288952,-114.82063164000002,12.536443148688047,set #2
1970-01-01 00:00:29.977465448,3.5090107917785645,-0.039115000516176224,0.8178385496139526,3112.3635940800004,2912.25073776,423.21173232,1699.0975154399998,-772.96730784,-699.95291808,-27.190631519999997,204.85475087999998,12.827988338192421,set #2
1970-01-01 00:00:29.987745580,3.5092060565948486,-0.02967410534620285,0.8233702182769775,2958.2105436,3257.963046,-719.5971744000001,678.5237316,-2230.9898754,-2246.9883696,-594.1195962,-232.00013460000002,13.119533527696793,set #2
1970-01-01 00:00:29.997759876,3.5093462467193604,-0.020165415480732918,0.8291658163070679,3720.9944928,2526.19415412,-215.39447904000002,1072.78640196,1467.63990984,-4249.0770800400005,-1106.813955,397.12300992,13.411078717201168,set #2
1970-01-01 00:00:30.007923660,3.5094716548919678,-0.010484784841537476,0.8353701829910278,-798.2368836,-1649.3895054,-1438.7413560000002,-575.2677372,2228.4823704,-1892.1160362,-314.0243262,-731.5045452,13.70262390670554,set #2
1970-01-01 00:00:30.017350015,3.509591579437256,-0.0008378885686397552,0.841828465461731,-213.90022095,-435.41542395,-600.4370736000001,193.07636205,-2102.2121328,-3346.49416725,377.34562905,642.6077502,13.994169096209912,set #2
1970-01-01 00:00:30.027798709,3.509678840637207,0.008881790563464165,0.8486859202384949,929.86277943,-954.93308469,-757.5839399700001,-363.12229083,-784.33233411,-3914.81198511,327.08502606,-33.753315959999995,14.285714285714286,set #2
1970-01-01 00:00:30.037347373,3.509753465652466,0.018588606268167496,0.8559343814849854,-548.4537162,-1507.52848506,-748.06826133,-299.31830994,-36.42503670000001,-2619.33203805,421.80176571,-428.12440671,14.577259475218659,set #2
1970-01-01 00:00:30.047804651,3.5097362995147705,0.028256364166736603,0.8635042905807495,-2615.88511899,159.97076082,-503.70044673,-314.11233906,-836.68785018,-2985.81105147,493.7626668,-256.64265315,14.868804664723033,set #2
1970-01-01 00:00:30.057605800,3.5097079277038574,0.037930794060230255,0.8714886903762817,-465.582156,1024.1127,-222.13885199999999,123.39046200000001,-1880.542404,1515.170046,868.4268059999999,-398.743722,15.160349854227405,set #2
1970-01-01 00:00:30.067477045,3.509650468826294,0.04754878953099251,0.8798564076423645,883.84885095,-31.73601015,-385.9300809,-430.9132308,-2523.68524005,2867.5912044,1126.64374485,-154.6929423,15.45189504373178,set #2
1970-01-01 00:00:30.077308473,3.5094497203826904,0.05616673827171326,0.8890429139137268,888.5022135600001,-722.5563384,-802.24332513,-573.05757366,18.147382890000006,4741.274737680001,186.37297575,195.50267996999997,15.743440233236152,set #2
1970-01-01 00:00:30.087432680,3.510084629058838,0.06587943434715271,0.898064136505127,-19.818052800000004,701.7506496,563.6071584,744.2594952000001,818.2329636000001,5277.9141168,301.4262108,244.9146804,16.034985422740526,set #2
1970-01-01 00:00:30.097407398,3.510401487350464,0.07532866299152374,0.9074463844299316,-1244.66172636,-745.87708026,-132.19666356,26.403402479999997,-174.2891982,5120.765363220001,578.3242452,302.14911636,16.3265306122449,set #2
1970-01-01 00:00:30.108527717,3.510782480239868,0.08452525734901428,0.9170491099357605,-1804.8039348300001,-1117.27873686,449.64042006,367.66048605000003,-1043.83016361,4689.10312884,1456.09216857,260.19912711,16.61807580174927,set #2
1970-01-01 00:00:30.117763576,3.511174440383911,0.09355828911066055,0.9268593192100525,-1707.16396344,-292.79150784,10.195348800000033,-80.48274936000001,-1716.6586164,3854.01666936,1026.56748792,328.43234424,16.909620991253647,set #2
1970-01-01 00:00:30.127413330,3.5115766525268555,0.10238883644342422,0.9368734955787659,-1982.2888644,-675.3508476000001,-120.32983560000001,-213.4749006,-298.06683660000004,3565.1199675000003,897.1978626,-106.83865920000001,17.20116618075802,set #2
1970-01-01 00:00:30.137439069,3.512017250061035,0.11106051504611969,0.9470107555389404,-321.73836317999996,1803.9235726200002,617.47211565,644.6143337400001,-534.66481029,3081.70647291,1129.59350205,200.88335787,17.49271137026239,set #2
1970-01-01 00:00:30.147692975,3.5125863552093506,0.1194983720779419,0.9572458267211914,-917.055555,1680.667911,784.76809125,466.6953622500001,-2092.6642425,2766.5180692500003,1134.2010615,-185.5795695,17.784256559766764,set #2
1970-01-01 00:00:30.158126649,3.5131449699401855,0.1277589201927185,0.9676925539970398,-3381.98740347,-734.0511192299999,-418.31877671999996,-856.10714436,-1158.31235676,2404.16323407,604.44083388,90.16460076,18.07580174927114,set #2
1970-01-01 00:00:30.167540607,3.513420343399048,0.13581717014312744,0.9780483841896057,-2895.68950398,1060.88208681,-250.20705723,-327.73370916,-1009.41789741,1902.24804237,1121.7076755300002,555.52877835,18.367346938775512,set #2
1970-01-01 00:00:30.177520570,3.5136642456054688,0.1438359171152115,0.988616943359375,-3655.0912086,-629.7328986,39.960024000000004,-198.4823997,-230.9803821,1957.7018019,1316.1209685,509.8070835,18.658892128279884,set #2
1970-01-01 00:00:30.187470970,3.5137712955474854,0.15160715579986572,0.9993134140968323,-3211.4446026,77.7642606,28.11799769999999,-179.6995317,-444.50012100000004,1419.1635159,589.2048981,631.1412198,18.950437317784257,set #2
1970-01-01 00:00:30.197369632,3.513944387435913,0.15909606218338013,1.0100229978561401,-3229.18860576,80.08940160000002,157.16224992,-36.936931200000004,52.1050608,1315.70448672,455.29569696,737.56476768,19.24198250728863,set #2
1970-01-01 00:00:30.207949457,3.514009952545166,0.16640712320804596,1.0208265781402588,-2462.94760842,2084.71225014,788.75560881,737.07279048,-272.79098886,1391.67557646,577.0392150900001,635.64266181,19.533527696793005,set #2
1970-01-01 00:00:30.217543897,3.5139060020446777,0.1736432909965515,1.0317399501800537,-2681.73267648,1110.8945589300001,-147.17656629,-64.55041671000001,-567.53725977,1360.16718669,186.59914533,439.06357365,19.825072886297377,set #2
1970-01-01 00:00:30.227706251,3.5138511657714844,0.1806432008743286,1.0426669120788574,-4839.468574590001,-3097.99492236,-1824.2984798999998,-1889.29430235,343.38528588,1154.78755587,-1348.30564323,-687.0849285300001,20.11661807580175,set #2
1970-01-01 00:00:30.237373647,3.5137362480163574,0.18753530085086823,1.0538674592971802,-1458.17997468,1219.38286236,281.24462144999995,199.24606611,1135.5543474600001,804.5837865,-1554.86361732,704.73706407,20.408163265306122,set #2
1970-01-01 00:00:30.247530040,3.513425588607788,0.19428077340126038,1.0651295185089111,-3933.44133,-1463.6863644,-2004.8033304,-1999.0111284000002,895.3725612,54.9418428,-1250.6740272000002,-139.2969084,20.699708454810498,set #2
1970-01-01 00:00:30.257963237,3.5130455493927,0.20080514252185822,1.0764182806015015,-859.84052778,2310.41698836,957.29823891,906.8879211599999,-334.62829491,36.7001271,925.06561719,579.70889379,20.99125364431487,set #2
1970-01-01 00:00:30.267470655,3.512587785720825,0.20715367794036865,1.0877439975738525,709.2602146500001,2354.4536534999997,2062.4558857499997,1961.53744215,-918.8236863000001,183.2295621,1407.17456685,1019.62192995,21.282798833819243,set #2
1970-01-01 00:00:30.277206239,3.5120766162872314,0.21325725317001343,1.0990934371948242,652.9302156000001,542.04680127,1062.69271797,657.04500771,-1125.05568474,-118.18521702,328.78781130000004,213.39784830000002,21.574344023323615,set #2
1970-01-01 00:00:30.287518081,3.5116162300109863,0.21911273896694183,1.1104376316070557,-506.1711096,2828.86753773,199.74224088,197.69511723,-1970.4958728,188.21627487,851.99439429,460.43439429,21.86588921282799,set #2
1970-01-01 00:00:30.297388610,3.5110514163970947,0.22481554746627808,1.1217442750930786,985.2803532,1912.8768204,1386.0360696,1280.7968277,-1215.1537242000002,672.0673479000001,884.6476938000001,652.9635255000001,22.157434402332363,set #2
1970-01-01 00:00:30.308048067,3.5105438232421875,0.23029160499572754,1.1330472230911255,-196.26267804000003,98.73235281000001,487.4170743,348.08253870000004,-1898.15221362,416.10758513999997,364.6339164,-16.411161,22.448979591836736,set #2
1970-01-01 00:00:30.317603645,3.510061025619507,0.235543891787529,1.1443473100662231,-1779.5016408000001,-335.65186200000005,-280.3340397,-523.2280794000001,-1682.0566503,468.3620019,287.72759925,213.2491569,22.740524781341108,set #2
1970-01-01 00:00:30.327428874,3.509622097015381,0.24058204889297485,1.155561923980713,-375.33879006,946.82590938,-117.20998692,-381.25306830000005,-1602.79861014,337.30691202,685.0685969399999,604.87190322,23.032069970845484,set #2
1970-01-01 00:00:30.337756214,3.509225368499756,0.24533461034297943,1.1666630506515503,231.73423103999994,574.0726633200001,1625.405262,1089.2596782599999,-1853.0790603,186.41923092,985.01988936,872.0067798,23.323615160349856,set #2
1970-01-01 00:00:30.347748575,3.5087695121765137,0.2498711496591568,1.1776889562606812,-534.3436214999999,-2276.3522535,-396.9759495,-496.912026,-1354.0544355,-8.238038249999999,164.59851525,280.03518075,23.61516034985423,set #2
1970-01-01 00:00:30.358242568,3.5082645416259766,0.2541936933994293,1.1886450052261353,-607.26490344,1382.07637464,-175.265532,-248.06059824,-1568.0492692799999,-481.3812432,205.23114768,196.1568024,23.9067055393586,set #2
1970-01-01 00:00:30.367699680,3.507845401763916,0.2582551836967468,1.1995670795440674,181.25864639999998,2248.1055168,679.911648,467.82084960000003,-1429.5904272,-313.8247632,390.947856,393.7632192,24.198250728862973,set #2
1970-01-01 00:00:30.377422866,3.507356882095337,0.26211705803871155,1.2103240489959717,2889.03756414,3364.5211197,2881.64420934,2553.74366598,-1336.56161652,19.32485334,963.2954432399999,977.40630156,24.48979591836735,set #2
1970-01-01 00:00:30.387282428,3.5069081783294678,0.26574087142944336,1.221055030822754,90.3516822,1057.07313192,338.12965836,120.07468668,1353.16145796,-3234.16384824,9.348312480000004,103.10094288,24.78134110787172,set #2
1970-01-01 00:00:30.397390184,3.506411075592041,0.26913124322891235,1.231546401977539,-1366.69661856,-562.6577829600001,-901.50030984,-1219.44673032,-3944.08941576,-6388.9800000000005,-502.73894736,-107.75533392000001,25.072886297376094,set #2
1970-01-01 00:00:30.407876310,3.505871057510376,0.2722705006599426,1.24190092086792,684.4577454,1741.3454838,852.1577454000001,646.1465907,5794.092170100001,-2148.7843728,205.3631814,395.2494585,25.364431486880466,set #2
1970-01-01 00:00:30.417372522,3.5052738189697266,0.27525535225868225,1.2520453929901123,250.71856757999998,543.29695602,182.84504705999998,139.51821,6192.97698786,-267.09523932,-203.9761191,-213.57482016,25.655976676384842,set #2
1970-01-01 00:00:30.427702245,3.5047531127929688,0.27800342440605164,1.2619982957839966,1318.15062795,1393.30888125,1240.0340472,1154.49056385,2720.3050641,1157.70125835,298.4192835,416.05911945,25.947521865889215,set #2
1970-01-01 00:00:30.437398014,3.5041539669036865,0.280508816242218,1.271794319152832,804.68805378,940.65600174,1085.126718,1027.00500474,1192.3113266999999,1692.6517101,-19.269637920000008,-86.56682658000003,26.239067055393587,set #2
1970-01-01 00:00:30.447297630,3.503614664077759,0.28275492787361145,1.2814140319824219,1095.2135064,1886.6191656,776.5081272000001,784.7630076,2542.7461566,2353.9893429,338.6538441,421.375617,26.53061224489796,set #2
1970-01-01 00:00:30.458644447,3.503058671951294,0.28477194905281067,1.290903925895691,-391.41798072,650.24615682,-467.38041207,-536.04658848,2023.6444917,2574.14721174,-452.7900897,-213.88054662,26.822157434402335,set #2
1970-01-01 00:00:30.467666921,3.502445697784424,0.2865793704986572,1.3001941442489624,460.37618445,959.01469248,324.41185647,218.71709535,1031.32494543,2218.69631178,-302.73426105000004,-71.80582577999999,27.113702623906708,set #2
1970-01-01 00:00:30.477524099,3.501875400543213,0.28811585903167725,1.3093252182006836,-397.07444399999997,416.9310834,149.65170441,-72.62941374,1778.5548654899999,1880.22293745,-178.26539289000002,-9.411988560000001,27.40524781341108,set #2
1970-01-01 00:00:30.487907466,3.5012197494506836,0.2894822359085083,1.3182077407836914,245.6307243,1600.6830723,120.75607986,18.130929960000003,396.05233902000003,1673.5582905600002,13.5074979,255.11046288,27.696793002915452,set #2
1970-01-01 00:00:30.497501192,3.5005388259887695,0.29073360562324524,1.3268234729766846,256.87890383999996,1300.4131608000002,-230.071608,-309.82986216,496.9020888,1300.99862568,162.69672744,88.89700560000001,27.988338192419825,set #2
1970-01-01 00:00:30.508063135,3.4999473094940186,0.2918315827846527,1.3352075815200806,220.46235900000002,982.9768845,174.86320410000002,106.17707295,1500.82188945,1113.8091490499999,-186.67103715,-193.54103535000002,28.2798833819242,set #2
1970-01-01 00:00:30.517996129,3.4993066787719727,0.29284557700157166,1.3434075117111206,359.91062210999996,1239.02472096,156.93398838000002,141.79645349999998,1203.40740702,984.29760273,-53.61166278,121.62515118,28.571428571428573,set #2
1970-01-01 00:00:30.527479228,3.4986460208892822,0.29376697540283203,1.3514082431793213,531.62147688,972.25539216,382.99097148,367.8313002,419.2765356,837.9630324,189.54924924,181.12259568,28.862973760932945,set #2
1970-01-01 00:00:30.537345943,3.497938394546509,0.29463300108909607,1.3591854572296143,-1243.56266697,-205.50112479,-326.5758015,-518.3574481799999,254.99371638,348.07713798,-186.14994567,359.66510658000004,29.154518950437318,set #2
1970-01-01 00:00:30.547339496,3.497328281402588,0.29538002610206604,1.3667433261871338,572.68193424,475.97437992,465.64135488,373.27395144,35.8651644,385.41896952,-357.31146048,339.14853648,29.446064139941694,set #2
1970-01-01 00:00:30.558093366,3.49665904045105,0.29604753851890564,1.3741271495819092,457.52364138,587.62750956,-187.73660646000002,-246.80867016,-1280.42705232,369.05163438,-462.2017452,-46.525471200000005,29.737609329446066,set #2
1970-01-01 00:00:30.568646249,3.495957374572754,0.2965398132801056,1.3813565969467163,438.5696289,770.7727497600001,-313.74651789,-259.37559999,-464.75448669,318.23961117000005,-827.2479707699999,203.90144697,30.02915451895044,set #2
1970-01-01 00:00:30.577484188,3.4951694011688232,0.29702964425086975,1.3882135152816772,636.35533728,806.98817316,231.07683924,228.96183803999998,-69.76867247999999,285.15950268,-683.74299552,141.08550612,30.32069970845481,set #2
1970-01-01 00:00:30.587389526,3.4944307804107666,0.2974679172039032,1.394927740097046,423.88467888,465.69801642,-817.36694988,-696.09036744,351.99571914,259.56676668,-581.34732786,-140.631972,30.612244897959187,set #2
1970-01-01 00:00:30.597495136,3.4937479496002197,0.2978188395500183,1.4014002084732056,599.45129088,-163.37016384,-164.142888,-262.97033568,-23.844163199999997,189.89585472000002,-611.9448816,-326.74485792,30.90379008746356,set #2
1970-01-01 00:00:30.608002958,3.493131637573242,0.2980792224407196,1.407763957977295,630.43392282,-68.89960272,228.83774862,175.06620066,125.42172474,177.45803712,-27.77879052,222.08081220000003,31.19533527696793,set #2
1970-01-01 00:00:30.617478189,3.492530107498169,0.2983359396457672,1.4138826131820679,588.7113211200001,-698.26393026,297.96838071,213.74668262999998,-982.22015736,177.53183955,115.09588038,346.41743721,31.486880466472304,set #2
1970-01-01 00:00:30.627697048,3.4919755458831787,0.29852408170700073,1.4198718070983887,764.6291109599999,-292.74867024,130.01881152,41.254951919999996,685.0912816800001,-10.951515119999998,117.73193328,409.51453607999997,31.77842565597668,set #2
1970-01-01 00:00:30.637577352,3.4914937019348145,0.2986447513103485,1.4257264137268066,-175.24209768,-879.349458,-496.41484776,-542.11510704,1857.7982436,132.04572264,-382.82564736,-49.91770992,32.06997084548105,set #2
1970-01-01 00:00:30.647451457,3.491070032119751,0.29868999123573303,1.4314420223236084,891.08949033,-690.03695085,188.00644356,108.92924523,589.98670575,309.635469,80.23974192,221.43096807,32.36151603498543,set #2
1970-01-01 00:00:30.658224878,3.490612268447876,0.29869210720062256,1.4369558095932007,1557.4876441800002,239.51309538,543.96326868,601.3866807,1111.48306542,306.2841171,257.54497313999997,424.1973021,32.6530612244898,set #2
1970-01-01 00:00:30.667758998,3.4902729988098145,0.29872989654541016,1.4421075582504272,2505.72664836,-506.33071398,280.0640817,236.46251927999998,413.8645602,400.96239221999997,233.92060926,-160.72553328,32.94460641399417,set #2
1970-01-01 00:00:30.677501735,3.4899730682373047,0.2986794710159302,1.4471111297607422,1530.2681004,-827.46835275,154.353264,169.54499445000002,-1367.22908205,256.51764840000004,-846.19749045,451.2002469,33.23615160349854,set #2
1970-01-01 00:00:30.687920866,3.489701271057129,0.29853007197380066,1.4519593715667725,928.63192578,-1311.0034158,48.86529726,13.058231159999998,-4578.0841470000005,-1089.79262184,318.96963072,254.109531,33.52769679300292,set #2
1970-01-01 00:00:30.697363672,3.489530563354492,0.2983534038066864,1.4565107822418213,164.64273695999998,-1338.68585448,-81.08817288,-146.9797368,-3432.3786588000003,-755.28862656,225.35811791999998,-62.70286464000001,33.81924198250729,set #2
1970-01-01 00:00:30.708672103,3.4892773628234863,0.29823169112205505,1.46086585521698,102.41233041000001,-1508.08329672,-342.98373876,-475.19172987,-5824.76666499,-1023.3119613599999,590.95595481,477.17303556,34.11078717201166,set #2
1970-01-01 00:00:30.717317399,3.489151954650879,0.2980540692806244,1.465107798576355,987.1881134700001,-187.39741605,827.2179345300001,694.41992139,-5218.47685359,-1060.33542732,316.07601168,568.50443754,34.40233236151604,set #2
1970-01-01 00:00:30.727587280,3.488922357559204,0.2978588342666626,1.4692505598068237,1331.0551488,70.1455872,765.675456,878.4527232,-3202.6111416,-401.564124,696.127536,869.1054528,34.69387755102041,set #2
1970-01-01 00:00:30.737901506,3.488694429397583,0.2976561188697815,1.4732059240341187,338.62724454,-770.3639502000001,38.00525976,449.45502419999997,-2758.3337340000003,-34.08236285999999,-235.51172502,898.4217395400001,34.98542274052478,set #2
1970-01-01 00:00:30.747397956,3.4884214401245117,0.2974212169647217,1.4769271612167358,257.64234288,-707.16185592,179.59402655999997,430.64303256000005,-3388.75776876,40.357028400000004,-368.95618656,309.07433076,35.27696793002916,set #2
1970-01-01 00:00:30.757727680,3.488121271133423,0.2971215546131134,1.4803228378295898,249.36668640000002,-777.5539824,124.33680480000001,398.487648,-3677.6097072,-1312.822056,-1.2241632000000031,711.8403552000001,35.56851311953353,set #2
1970-01-01 00:00:30.767571268,3.487877368927002,0.29666855931282043,1.4835443496704102,-311.60043876000003,-1437.9867262799999,-326.32083588,-127.95375372000001,-2861.11015008,-2365.5287806799997,-314.971644,282.07679448,35.8600583090379,set #2
1970-01-01 00:00:30.777386960,3.4875829219818115,0.29625579714775085,1.4864507913589478,-45.3385608,-988.9181328,389.0952936,405.091752,-3076.328736,-3310.1794752,-29.924356799999998,362.17159680000003,36.15160349854228,set #2
1970-01-01 00:00:30.787112531,3.487191677093506,0.2959398329257965,1.4890110492706299,-20.52130509,-826.74227649,175.94869071,14.90970858,-2810.45477544,-3874.18557864,-45.827417999999994,752.94595311,36.44314868804665,set #2
1970-01-01 00:00:30.797516880,3.486941337585449,0.2955400347709656,1.49152410030365,162.9718896,-355.1158728,-11.320670400000001,-178.0735944,-2557.6338528,-4154.3006544,-121.92086400000001,262.2275448,36.734693877551024,set #2
1970-01-01 00:00:30.808052120,3.486665964126587,0.29516080021858215,1.493810772895813,-241.5512424,-616.0077768,-157.6423524,-807.171144,5094.0235944,-2761.3828476,-131.66705760000002,503.38558919999997,37.02623906705539,set #2
1970-01-01 00:00:30.817833480,3.4864442348480225,0.2948281764984131,1.4957492351531982,408.90754319999996,56.03552760000001,218.29328040000001,-685.5820764,6388.9800000000005,-4556.5883376,-5.834212799999996,494.2086708,37.31778425655977,set #2
1970-01-01 00:00:30.827874717,3.486206293106079,0.2945702075958252,1.4974759817123413,570.9545680800001,202.89626213999998,307.46143701,345.38385999,4854.56458929,-4868.497741380001,-155.47062648,504.03791568,37.609329446064145,set #2
1970-01-01 00:00:30.838115510,3.4860804080963135,0.2943117022514343,1.4989802837371826,514.8843765,343.879731,167.7782886,6.9375306000000005,4817.4737286,-5087.8911369,-170.1770538,130.5869682,37.90087463556851,set #2
1970-01-01 00:00:30.847616252,3.4858946800231934,0.2940879166126251,1.5002238750457764,-241.8585312,-170.4891552,-167.58475344000001,-447.48193152,4422.31599732,-4447.8452226,-162.78678312,84.17919900000001,38.19241982507289,set #2
1970-01-01 00:00:30.858109054,3.485797643661499,0.2939295768737793,1.501109004020691,212.92989821999998,-264.99334524,-41.738756280000004,-350.6571861,3297.7533544800003,-3936.47375628,354.35282844,108.16574808000001,38.48396501457726,set #2
1970-01-01 00:00:30.867335376,3.485774040222168,0.2938392162322998,1.5018110275268555,-285.22480896,-1456.67746848,-442.17222191999997,-665.6063731200001,3576.5308488,-3772.0892351999996,-144.55442352,-325.11073296,38.775510204081634,set #2
1970-01-01 00:00:30.877609548,3.4858005046844482,0.29376643896102905,1.5023276805877686,528.9624054,-1178.7330126,-573.7223856,-651.5809045200001,3782.0268798,-3270.93332748,12.55033416,-87.5854044,39.06705539358601,set #2
1970-01-01 00:00:30.887751398,3.485840320587158,0.293722540140152,1.5025876760482788,625.1494704,-874.4668576800001,-315.33206952,-418.63409016,3317.2704006000004,-2865.0346795200003,610.3273839000001,237.40669134,39.35860058309038,set #2
1970-01-01 00:00:30.897641477,3.4858503341674805,0.293751060962677,1.5026648044586182,534.31909362,-1344.52902246,100.04805993,-87.08613108,1307.03601873,-2731.4602809000003,731.99340825,268.81080525000004,39.650145772594755,set #2
1970-01-01 00:00:30.907829580,3.485907554626465,0.29380303621292114,1.5024946928024292,642.3366534,-641.8723506,-82.93208820000001,-340.9027284,1495.6662708000001,-2759.919864,307.14280740000004,300.5371356,39.94169096209913,set #2
1970-01-01 00:00:30.917564449,3.4860262870788574,0.293834388256073,1.5020701885223389,1367.8824459300001,-766.59324729,-398.57756523,-783.70823427,1688.9777217300002,-2698.14932166,-189.32715711,67.38567927,40.2332361516035,set #2
1970-01-01 00:00:30.927367267,3.486157178878784,0.29385998845100403,1.5014333724975586,1414.62192495,-705.78303471,-255.95146902000002,-613.1677987500001,422.98906455,-2270.0568610200003,-119.5672218,-353.23861014,40.524781341107875,set #2
1970-01-01 00:00:30.937312660,3.486266851425171,0.2939389646053314,1.5005172491073608,901.7739822,-884.3666598,-255.5978958,-532.9786566,693.5873178,-1665.3563628,-256.3916004,83.4490176,40.816326530612244,set #2
1970-01-01 00:00:30.947143135,3.486403703689575,0.29404711723327637,1.4993972778320312,1403.96086545,-947.72154945,-666.81035265,-777.3715599,-338.7834411,-1996.0614102,-390.0045513,-163.61106840000002,41.10787172011662,set #2
1970-01-01 00:00:30.958032665,3.4865217208862305,0.29418277740478516,1.4980345964431763,3437.7233553,-1432.8622814999999,-713.6593698,-567.1555929,562.7848902000001,-1258.9555797,-350.19061155,-104.83923254999999,41.399416909620996,set #2
1970-01-01 00:00:30.968102035,3.4866695404052734,0.29430246353149414,1.4964587688446045,3303.0363171000004,-547.27054005,-234.52955565,52.69342845,-2874.2647303500003,-1397.5885872,112.4195397,311.35492050000005,41.690962099125365,set #2
1970-01-01 00:00:30.977402982,3.486767530441284,0.2944577932357788,1.4945781230926514,2032.18581384,-889.38806034,-1090.06114776,-396.08227464000004,-734.22328668,-1653.81531198,-15.04391382,427.65539232000003,41.98250728862974,set #2
1970-01-01 00:00:30.987459478,3.487075090408325,0.2946500778198242,1.492370367050171,1670.3292902399999,-1811.2170421800001,-728.0150880599999,74.94134154,864.62490426,-1379.51517756,136.99741458,511.46812625999996,42.27405247813411,set #2
1970-01-01 00:00:30.997522172,3.487344264984131,0.2949056029319763,1.4898383617401123,1630.00781112,46.908385679999995,-733.88700216,58.565817960000004,-573.92011248,-798.90158868,266.58493836,617.2208796,42.565597667638485,set #2
1970-01-01 00:00:31.007944402,3.4876723289489746,0.2951388657093048,1.487023115158081,673.9099372200001,3401.5033299,-588.4863800400001,57.70129638,-335.74439886000005,199.41697073999998,489.98999478,740.04653424,42.85714285714286,set #2
1970-01-01 00:00:31.017361459,3.488050937652588,0.2953777313232422,1.4839060306549072,-524.29162812,3160.6454763,-921.35113083,-396.66217617,-320.47175978999996,297.94376040000003,298.3215495,543.43367949,43.14868804664723,set #2
1970-01-01 00:00:31.027758655,3.4885401725769043,0.2956767678260803,1.4804044961929321,-784.8036105,3993.8938611000003,-508.70541540000005,-363.01177965,-719.6676357,760.4261281500001,654.44428725,691.0919496,43.440233236151606,set #2
1970-01-01 00:00:31.037472543,3.4890248775482178,0.29597774147987366,1.4766796827316284,-160.54534431000002,4183.97588817,-235.92127689,574.2039950400001,788.7704011200001,437.15507238,-200.64989763,432.82453890000005,43.73177842565598,set #2
1970-01-01 00:00:31.047661600,3.489638566970825,0.2962324917316437,1.472741723060608,-129.68716799999999,2371.948488,-478.835136,279.710184,1009.943376,138.882432,-999.566256,-91.561704,44.02332361516035,set #2
1970-01-01 00:00:31.058046875,3.4903249740600586,0.29647988080978394,1.4685258865356445,-159.729375,1306.10390625,-450.8521875,268.55765625,1402.48265625,140.00390625,-443.259375,-531.21046875,44.31486880466473,set #2
1970-01-01 00:00:31.067333517,3.4909274578094482,0.2967980206012726,1.4639662504196167,-324.02636097,298.08083136,-60.119341229999996,556.46464185,1163.42221827,379.80108855,-629.98866723,-353.13812352,44.606413994169095,set #2
1970-01-01 00:00:31.077621755,3.491581439971924,0.2970621585845947,1.459225058555603,-1370.6027439,-1154.7063684,-530.49568065,-87.063756,147.1174809,704.8263924,-478.77754665000003,-969.18087435,44.89795918367347,set #2
1970-01-01 00:00:31.087373552,3.4922866821289062,0.29725179076194763,1.4542349576950073,-790.17086304,-1287.157716,250.38375648,626.2617004800001,-246.04484736,874.46583744,-249.7468272,-742.308528,45.18950437317785,set #2
1970-01-01 00:00:31.097234544,3.492964029312134,0.2974121570587158,1.4490104913711548,-1201.4765256,-1984.60496208,245.31919152,489.70949664,584.63681952,761.90192208,-357.3322272,-810.9575323199999,45.481049562682216,set #2
1970-01-01 00:00:31.107932863,3.493706226348877,0.29757261276245117,1.4434471130371094,-1903.86976338,-2603.15636139,-144.82508898,37.46822469,1152.80645103,356.78263413,-258.48931914,-1331.68668633,45.77259475218659,set #2
1970-01-01 00:00:31.118052062,3.49432373046875,0.2977276146411896,1.4377895593643188,-1914.2442212400001,-3166.44074214,158.72800320000002,164.0734212,775.1712540000001,744.77999934,-494.65870739999997,-1191.5627575800002,46.06413994169097,set #2
