,x,y,z,emg_1,emg_2,emg_3,emg_4,emg_5,emg_6,emg_7,emg_8,percentage,Source
1970-01-01 00:00:17.867259822,3.4316933155059814,-0.11525285243988037,0.7648658752441406,169.61965254,265.87130544,417.15862812,653.10096696,51.29930598,-1183.04375202,253.94189262,230.25771054,0.0,set #1
1970-01-01 00:00:17.877347550,3.4318439960479736,-0.11002575606107712,0.7660095691680908,26.028073499999998,225.4992675,264.306744,478.8615975,-119.81812049999999,-1442.048712,122.1588225,32.632587,0.24691358024691357,set #1
1970-01-01 00:00:17.887318215,3.4319636821746826,-0.1046881452202797,0.7672611474990845,-284.01057749999995,-433.5767163,2.6561145000000046,199.7493303,466.5817923,-1626.656616,-130.08525075,-177.39892755000002,0.49382716049382713,set #1
1970-01-01 00:00:17.897184453,3.432054042816162,-0.09930898994207382,0.7685232162475586,100.29497751,178.47119199,224.65924104,471.42159753000004,366.2279673,-1907.78800407,29.345817150000002,4.5487037699999995,0.7407407407407407,set #1
1970-01-01 00:00:17.907271466,3.4320693016052246,-0.09380129724740982,0.7697868943214417,-56.79471954,-162.05531082,191.76381744,390.14579136000003,417.52337796,-2037.41951946,-226.09259556,-257.38070202,0.9876543209876543,set #1
1970-01-01 00:00:17.917389474,3.432114839553833,-0.0881885513663292,0.7711953520774841,-66.02700468,41.01773832,170.40330138000002,347.53514718,128.04723828000002,-2020.76242056,-31.579743,-51.17622198,1.2345679012345678,set #1
1970-01-01 00:00:17.927315077,3.432178258895874,-0.08251679688692093,0.7727295756340027,-249.40776080999998,-193.70736216,17.507280180000002,144.52716096,303.77270508,-2096.56812222,-166.30007823000003,-234.83051787,1.4814814814814814,set #1
1970-01-01 00:00:17.937144599,3.4321882724761963,-0.07679009437561035,0.7742967009544373,79.82495586,-84.26719236000001,233.86477569000002,264.90510539999997,366.57897003,-2006.4535214100001,29.71745751,7.5696702899999995,1.728395061728395,set #1
1970-01-01 00:00:17.946982464,3.432220458984375,-0.07091020792722702,0.7759391069412231,246.40494528,463.34051712,87.57919872,132.44287680000002,-487.11718848,-2005.96447584,-69.68672256,-49.40689728,1.9753086419753085,set #1
1970-01-01 00:00:17.956961474,3.432298421859741,-0.06495488435029984,0.777696967124939,335.45519826,449.81110044,350.50057536,316.07474574,-428.8637847,-1833.7496228999998,130.90346646,95.84919552,2.2222222222222223,set #1
1970-01-01 00:00:17.967279992,3.4324252605438232,-0.05895160138607025,0.7796309590339661,-237.79142712,-338.85606456,74.42782464,-57.39233136,-850.40144592,-1817.96215224,-213.0177972,-165.70290048,2.4691358024691357,set #1
1970-01-01 00:00:17.977561078,3.4325718879699707,-0.05281494930386543,0.7816560864448547,-260.57001594,-375.21295656,-3.4378515600000004,-250.86623172,-537.90596886,-1464.5574294,-203.03260536000002,-172.60209486,2.716049382716049,set #1
1970-01-01 00:00:17.987570843,3.43269419670105,-0.04651753604412079,0.7837570309638977,377.17910451,563.5194154200001,307.77599541,151.26793968,-767.65585143,-1270.65927144,56.70048033,136.11274482,2.962962962962963,set #1
1970-01-01 00:00:17.997299514,3.4328999519348145,-0.04021156579256058,0.786020815372467,-240.12887574,-131.13217026,-17.056222560000002,-189.73476521999999,-748.96136094,-1039.26446364,-111.3203598,17.13938538,3.2098765432098766,set #1
1970-01-01 00:00:18.007405839,3.433206081390381,-0.03384917974472046,0.7884534001350403,-940.74380634,-947.66665968,-562.75204752,-891.23452197,-413.32768191,-899.46411906,-448.42142514,-302.40540291,3.45679012345679,set #1
1970-01-01 00:00:18.017129740,3.4334986209869385,-0.02738560549914837,0.7909603118896484,265.853874,452.4314808,332.396727,126.2151774,-414.78211319999997,-606.8594376,77.162007,242.5737678,3.7037037037037033,set #1
1970-01-01 00:00:18.027417741,3.433807134628296,-0.020794883370399475,0.7935200929641724,43.9127091,-157.26995739,169.37886849,-20.24731878,-744.82338138,-618.89169069,-72.23367333,-44.556243030000005,3.950617283950617,set #1
1970-01-01 00:00:18.037287078,3.4342126846313477,-0.014024614356458187,0.796277642250061,-74.45181588000003,171.38507022,-111.42654042,-391.75091280000004,-498.23476170000004,-281.30681826,34.22097978,161.2527423,4.197530864197531,set #1
1970-01-01 00:00:18.047194800,3.4346067905426025,-0.007183183450251818,0.7991924285888672,-142.679628,-240.225336,-169.05486000000002,-480.854868,-438.443148,-374.77486799999997,-71.30650800000001,-47.417604000000004,4.444444444444445,set #1
1970-01-01 00:00:18.057474932,3.434973955154419,-0.00027651735581457615,0.8022059798240662,-650.1498541200001,-399.97811412,-586.2506348400001,-981.4440168,598.5125265600001,262.30008636,-28.201561439999995,52.821734160000005,4.6913580246913575,set #1
1970-01-01 00:00:18.067121586,3.4354021549224854,0.006945271976292133,0.8053919076919556,-602.15276082,-918.5266178400001,-379.75054181999997,-966.17585376,938.04979164,677.5494102,-198.57372444,-138.35016546,4.938271604938271,set #1
1970-01-01 00:00:18.077271781,3.4358298778533936,0.014187924563884735,0.8087026476860046,383.36141688,310.31444223,341.67471273,-211.68582201,271.17192882,557.95603617,388.31835822,368.87819592,5.185185185185185,set #1
1970-01-01 00:00:18.087400517,3.436230421066284,0.02154938317835331,0.812208890914917,1047.14343162,1038.80780016,1287.3416088,951.51482673,1152.21164955,1061.6364255899998,457.78490823,276.21067188,5.432098765432098,set #1
1970-01-01 00:00:18.097443185,3.4365174770355225,0.02904508449137211,0.8158515095710754,-342.0566877,-550.81774995,-529.0577584499999,-1153.2260161499999,1950.4968054,1057.11704865,-95.76754005,-52.18490354999999,5.679012345679012,set #1
1970-01-01 00:00:18.107172570,3.436673641204834,0.036660924553871155,0.8195599913597107,313.7501796,212.0824173,168.8261445,-214.4953473,1086.848724,986.3686287,137.1319014,125.0606955,5.925925925925926,set #1
1970-01-01 00:00:18.117108187,3.43684720993042,0.044351961463689804,0.8234423398971558,459.14853816000004,25.42863102,730.91696535,253.21259145,808.3012013700001,1057.3139335199999,207.20629722,505.57226187000003,6.172839506172839,set #1
1970-01-01 00:00:18.126855931,3.437011241912842,0.05214487016201019,0.8275723457336426,67.81729578000001,-181.23078792,-41.17788987,-660.41518062,-229.44844494,717.56366331,-323.59438137,-36.43194399,6.419753086419753,set #1
1970-01-01 00:00:18.137497029,3.437072515487671,0.06003544479608536,0.8318792581558228,518.72201511,456.24404280000005,303.96328716,-330.41806044,-584.4383754300001,453.32435771999997,131.66207808000001,210.35401764,6.666666666666666,set #1
1970-01-01 00:00:18.147426924,3.4371557235717773,0.06802508234977722,0.8362979292869568,-294.92862204000005,-365.47208568,-171.93910656,-912.15309432,650.8021072800001,833.52596184,-315.05414616,-263.83348524,6.91358024691358,set #1
1970-01-01 00:00:18.157091937,3.4373533725738525,0.07606712728738785,0.8409520387649536,-402.65431751999995,-45.989737170000005,1032.64959993,348.24044268,2248.51087734,1077.86891745,75.4337376,217.55537583,7.160493827160494,set #1
1970-01-01 00:00:18.167192063,3.4372193813323975,0.08439605683088303,0.8456572890281677,133.56389514,394.97583606,1812.88587636,646.70293818,1184.42273781,951.03851076,254.06207931,311.79879705,7.4074074074074066,set #1
1970-01-01 00:00:18.177269778,3.4374969005584717,0.09276098012924194,0.8507505059242249,-501.48262164,29.82600738,-366.59933076,-1232.4832338,-274.51249956000004,791.53396452,-19.09335324,167.53396452,7.65432098765432,set #1
1970-01-01 00:00:18.187090478,3.4378409385681152,0.10137773305177689,0.8560488820075989,29.67380754,826.16699022,631.54226928,-454.43322209999997,-2250.97251366,714.57661236,58.11384696,299.92886430000004,7.901234567901234,set #1
1970-01-01 00:00:18.197202525,3.4384846687316895,0.1102445125579834,0.861722469329834,-320.01284250000003,234.354822,-551.43783825,-1458.5138295,-4253.1229455,604.31977125,-96.6810195,114.55321800000002,8.148148148148147,set #1
1970-01-01 00:00:18.207232794,3.4393110275268555,0.11950169503688812,0.8679283857345581,-1345.25291784,-1134.2730913799999,-1077.8163279,-2005.0262606400001,-1892.9938809599998,1413.42511674,-263.33612604,-75.84162534000001,8.395061728395062,set #1
1970-01-01 00:00:18.217233500,3.440160036087036,0.12891942262649536,0.8744329810142517,-130.82706000000002,404.49396,-46.139145,-795.0452250000001,1484.03268,2318.756505,386.21524500000004,315.79158,8.641975308641975,set #1
1970-01-01 00:00:18.227186999,3.440971612930298,0.1384136974811554,0.8811205625534058,-994.4562326399999,-638.65450428,-686.34270159,-1375.88057997,-1284.0607338,2826.46188708,-324.03338565,-142.75944149999998,8.88888888888889,set #1
1970-01-01 00:00:18.237129531,3.441715955734253,0.14766763150691986,0.8878698348999023,508.92299718,355.82159925,583.6142286,-385.38817278,3137.52645531,1895.68648542,-303.67195014000004,177.02529351,9.135802469135802,set #1
1970-01-01 00:00:18.247256360,3.442188024520874,0.15673772990703583,0.8947697877883911,-421.27590960000003,127.6120716,-574.3768680000001,-1409.519514,3224.7715032,2162.0222364,-232.4262564,238.4311956,9.382716049382715,set #1
1970-01-01 00:00:18.257276377,3.4424688816070557,0.16564996540546417,0.9018654227256775,-313.69017537,51.75949155,-389.86996970999996,-1291.1106573299999,1243.26606105,2280.81160359,-204.62617461,100.00225209,9.62962962962963,set #1
1970-01-01 00:00:18.267044863,3.442744016647339,0.1742725521326065,0.9092318415641785,-92.33837418,46.508168850000004,-242.81092563,-1151.074314,-1376.5982232600002,2168.9155488,-350.39696835,-254.42705067,9.876543209876543,set #1
1970-01-01 00:00:18.277092061,3.4428722858428955,0.18302492797374725,0.9169724583625793,230.15951907000002,69.81419835,71.48654526,-867.1163264400001,-841.8400146,2125.43379009,144.46333824,224.76284259,10.123456790123456,set #1
1970-01-01 00:00:18.287537417,3.4429233074188232,0.19144520163536072,0.9248018264770508,-42.17368194000001,-3.6015688799999985,-147.93416001,-1083.2617208400002,-1921.0151403300001,1909.9811055,-189.6240333,341.3972211,10.37037037037037,set #1
1970-01-01 00:00:18.297154746,3.442816734313965,0.19979149103164673,0.9328463673591614,841.25255682,200.3605461,701.77841448,-169.42553628,-1306.04782542,1943.70525336,508.96694628,522.42729006,10.617283950617283,set #1
1970-01-01 00:00:18.307252726,3.4426493644714355,0.20799873769283295,0.9409780502319336,-248.57966562,-291.8860581,57.66711600000001,-900.49470654,-368.1176109,1857.97138566,42.04359042,107.05788054,10.864197530864196,set #1
1970-01-01 00:00:18.317298731,3.442458152770996,0.21614688634872437,0.949342668056488,1083.61736028,959.04919032,853.66298355,-58.297375110000004,-912.01767579,1746.34397964,114.76709634,481.78520832000004,11.11111111111111,set #1
1970-01-01 00:00:18.326988778,3.442267894744873,0.22416533529758453,0.9579691290855408,490.76880372,256.54997472,1199.03360148,192.78156689999997,529.09627212,1913.7586899599999,150.72819293999999,571.96806654,11.358024691358024,set #1
1970-01-01 00:00:18.337598643,3.4420807361602783,0.23202058672904968,0.9667893052101135,-745.7068655400001,-1491.04816068,-166.08280065000002,-1153.9619605799999,235.26424311000002,1532.46225522,-318.11074503,381.36768891,11.604938271604938,set #1
1970-01-01 00:00:18.347227654,3.4416685104370117,0.23996903002262115,0.975603461265564,-446.4498168,-492.03897678,-442.52533338,-1471.50869346,544.86163992,1222.56009018,-688.6294404600001,-79.58177448,11.851851851851851,set #1
1970-01-01 00:00:18.357328734,3.441572427749634,0.24735566973686218,0.9844702482223511,2113.50303372,1473.13285314,1959.4046589,1014.63537318,529.99041732,753.86650482,-0.47327046000000195,656.32217898,12.098765432098764,set #1
1970-01-01 00:00:18.367209277,3.4415969848632812,0.25435394048690796,0.9934748411178589,-2.852045429999997,-417.63844707000004,376.58627682,-565.17981234,936.51009114,181.04161803,-442.96279833,367.65661803,12.345679012345679,set #1
1970-01-01 00:00:18.377172789,3.441626787185669,0.26109951734542847,1.0024968385696411,-903.7951891800001,-907.04806452,-525.84190581,-1415.3783014800001,651.93700884,82.7197878,-717.99057603,315.66517905,12.592592592592592,set #1
1970-01-01 00:00:18.387324176,3.441704750061035,0.2675795555114746,1.0114412307739258,-1559.61432432,-1423.0135795200001,-159.28069872,-1009.49355936,1478.3292888,278.86714752,-740.5607227200001,23.222141280000002,12.839506172839506,set #1
1970-01-01 00:00:18.397239527,3.4417884349823,0.2739213705062866,1.0204557180404663,-130.12282803,-124.60089213,302.05737666000005,-617.53389828,1161.4134051,379.04087091,-373.43645859000003,354.36138504,13.08641975308642,set #1
1970-01-01 00:00:18.407106719,3.441770315170288,0.2801249027252197,1.0296016931533813,489.09795675,646.42357806,811.87988466,-44.01057648,867.15186168,578.6829184500001,-47.94301239,414.42281595,13.333333333333332,set #1
1970-01-01 00:00:18.416992745,3.441385269165039,0.2861797511577606,1.0385335683822632,294.21831465,435.06824205,405.25017389999994,-327.10827435,1114.0106951999999,699.3727884,-342.3609033000001,13.245530999999971,13.580246913580247,set #1
1970-01-01 00:00:18.427314601,3.4412033557891846,0.29197871685028076,1.047615885734558,11.046400169999998,-287.50370064,90.35816204999999,-388.53727107,727.57161906,719.13358023,-158.26604079,147.8841585,13.82716049382716,set #1
1970-01-01 00:00:18.436991057,3.44110369682312,0.2975495159626007,1.0567089319229126,2138.05326462,1403.66582577,942.26855385,638.1129495,789.23824317,970.99790931,39.06343155000001,527.94935817,14.074074074074073,set #1
1970-01-01 00:00:18.447271666,3.441004514694214,0.3029911518096924,1.066098690032959,445.68819750000006,-465.18689958,-297.9021318,-512.915598,471.55004676,888.6832929,-743.19793938,-261.92821668,14.320987654320987,set #1
1970-01-01 00:00:18.457529387,3.4405276775360107,0.30817466974258423,1.0753012895584106,-54.30181926,-219.04374999,-423.9749904,-511.66768575000003,503.76489813,925.76798418,-449.90805249,-159.62999520000002,14.5679012345679,set #1
1970-01-01 00:00:18.466989121,3.440264940261841,0.31335943937301636,1.0848569869995117,-146.80666572,-73.0783404,396.14613909,231.81612636,580.20153984,1154.30716596,-228.73381518,37.26315606,14.814814814814813,set #1
1970-01-01 00:00:18.477522454,3.439706325531006,0.3184684216976166,1.0943717956542969,410.97477408,519.15881316,379.98762594,-326.68127232,591.1334761800001,1128.91519806,-131.04516906,127.54440582,15.061728395061728,set #1
1970-01-01 00:00:18.487329325,3.4391748905181885,0.3234342336654663,1.1041300296783447,751.73160075,623.01118425,807.4572967500001,35.30131800000001,201.618651,1135.050072,272.23360125,607.07114325,15.30864197530864,set #1
1970-01-01 00:00:18.497053704,3.4385671615600586,0.32827869057655334,1.1139644384384155,301.78478304000004,364.89763752,360.39043248,-400.98927024,-150.06622176000002,1321.07732016,407.80786487999995,340.44187944000004,15.555555555555555,set #1
1970-01-01 00:00:18.507076106,3.4379899501800537,0.33294904232025146,1.1237919330596924,416.08866,1146.9406735799998,954.89292054,213.35383055999998,-413.53939536,1245.78632724,449.15439894,549.28361046,15.802469135802468,set #1
1970-01-01 00:00:18.517213187,3.437279224395752,0.3375251889228821,1.133659839630127,-484.59084024,1697.689344,899.7963604500001,684.7439500199999,-773.0545492800001,1369.8300408,621.82537677,605.97166773,16.049382716049383,set #1
1970-01-01 00:00:18.527206263,3.436612844467163,0.341859370470047,1.1434742212295532,-937.49086938,1868.79000321,-610.6662724500001,-444.16069815000003,-65.62356138,1364.44154379,160.47346302,271.5372972,16.296296296296294,set #1
1970-01-01 00:00:18.537334046,3.4357879161834717,0.3460264205932617,1.1532953977584839,-77.029485,1060.09722936,391.79804273999997,496.46801646,-96.76085718,1270.45887072,-438.8414043,167.42026626,16.54320987654321,set #1
1970-01-01 00:00:18.547216973,3.434929370880127,0.35008150339126587,1.1631327867507935,-400.5985425,-122.31528581999997,-174.10044405000002,-233.54217861,252.03352278,1292.773053,-233.74821287999998,202.82094612,16.790123456790123,set #1
1970-01-01 00:00:18.558654866,3.433681011199951,0.3538679778575897,1.1725482940673828,550.91251176,1033.43256042,831.6764835600001,493.49829828,230.93880342,1536.13926102,448.16346666000004,633.5550000000001,17.037037037037035,set #1
1970-01-01 00:00:18.567663750,3.4327359199523926,0.35761168599128723,1.1824513673782349,-243.47895,-284.5435125,-731.8857,-1017.1263375,-188.44751250000002,1384.4614875,404.801475,171.5614875,17.28395061728395,set #1
1970-01-01 00:00:18.577034554,3.432002305984497,0.3610747754573822,1.1924759149551392,238.79602656,96.11146194,1027.76641968,925.95880416,118.76375238,1409.55352668,669.33433242,684.07267032,17.530864197530864,set #1
1970-01-01 00:00:18.587406001,3.431025266647339,0.36442136764526367,1.2024356126785278,-73.18278162000001,488.51923341,67.55346741,24.0863844,226.62374709,1301.43228189,410.50864959,626.3245599,17.77777777777778,set #1
1970-01-01 00:00:18.597004971,3.4301021099090576,0.36758285760879517,1.2124838829040527,-2708.27874564,-1629.28687818,-1043.35808226,-1039.90155789,958.6578038700001,1174.79890671,-89.32114776,-95.41138425,18.02469135802469,set #1
1970-01-01 00:00:18.607153258,3.4291257858276367,0.37051936984062195,1.2224946022033691,1289.37359226,1155.63107634,1101.4803196799999,936.3761323800001,113.90826252000001,948.92977062,905.5763714400001,803.17362372,18.271604938271604,set #1
1970-01-01 00:00:18.617374263,3.4280991554260254,0.37324604392051697,1.232465386390686,1763.4301358700002,861.67425435,1183.98005895,1206.52382877,-22.83959652,1016.07871677,1034.48714265,469.21088565,18.51851851851852,set #1
1970-01-01 00:00:18.627042374,3.4269652366638184,0.37579846382141113,1.2422901391983032,735.37050444,-240.46846356,-6.08811138,-266.10576642,-117.55556748,831.09002574,211.5420255,64.82927568,18.76543209876543,set #1
1970-01-01 00:00:18.637057147,3.4257802963256836,0.3781517744064331,1.2520071268081665,-906.14869449,-714.72487788,39.85380515999999,-347.31593012999997,-93.4046607,655.6403302800001,399.87317409,-36.5204073,19.012345679012345,set #1
1970-01-01 00:00:18.647096715,3.4246723651885986,0.38030752539634705,1.26175057888031,1163.98863555,831.54351735,1271.6605941,719.3465526,319.5025431,421.93662615,600.23784015,210.31041525,19.25925925925926,set #1
1970-01-01 00:00:18.657065949,3.42358660697937,0.3822222054004669,1.2713602781295776,162.23445576,884.18747274,1008.18248505,451.64857257,279.24501423,580.44860055,734.10358632,695.84657532,19.50617283950617,set #1
1970-01-01 00:00:18.667154393,3.422410249710083,0.3839578330516815,1.2807461023330688,-637.23611406,-1201.32369708,493.87251147000006,-272.29336524,296.82142191,284.11400472,259.21101882,-22.85296221,19.753086419753085,set #1
1970-01-01 00:00:18.677377066,3.421466827392578,0.38549211621284485,1.2900272607803345,-1821.3572566799999,-852.0682911,-712.48332168,-1416.86722086,214.10033112,70.18186266000001,-17.12336886,-204.40676567999998,20.0,set #1
1970-01-01 00:00:18.687109074,3.420466184616089,0.38683438301086426,1.2990813255310059,-856.7115804000001,-975.90556986,-698.6767359,-1371.86266854,-663.91126932,255.91575126,-89.97207258,-266.48512956,20.24691358024691,set #1
1970-01-01 00:00:18.697009167,3.4196274280548096,0.3879736363887787,1.3081178665161133,-19.42150314,-93.63000036000001,172.99880832000002,-409.04012955,282.41005182000004,273.47339331,213.12753891,148.37518137,20.493827160493826,set #1
1970-01-01 00:00:18.707221827,3.418757677078247,0.38893282413482666,1.3169268369674683,-1131.36326394,-821.99149188,-1374.47526567,-1675.89204666,1804.03085031,-839.5846539600001,-574.79202573,-418.40224647,20.74074074074074,set #1
1970-01-01 00:00:18.717399916,3.417863368988037,0.3897760212421417,1.3256515264511108,831.6546404400001,1180.21310316,1076.6385707999998,520.4923464000001,1459.7398608,-5566.98463308,188.53956263999999,361.62968712,20.98765432098765,set #1
1970-01-01 00:00:18.727196059,3.417073965072632,0.39044708013534546,1.3342524766921997,639.058368,1592.46381021,651.90024393,298.65727203,-241.31739411,-5344.26690213,443.15450126999997,89.43025377000001,21.234567901234566,set #1
1970-01-01 00:00:18.737389645,3.416252851486206,0.3909635841846466,1.3426880836486816,2324.4273955500003,1576.7460228,1782.08319315,1083.9527380499999,1686.94882395,-1326.11918595,852.2518894500001,555.16743165,21.48148148148148,set #1
1970-01-01 00:00:18.747274003,3.415417432785034,0.39133596420288086,1.3510375022888184,1491.23785395,531.12898917,1039.94300865,586.14144147,1123.33882089,658.62128826,929.16835713,90.43591245,21.728395061728392,set #1
1970-01-01 00:00:18.757110915,3.4146482944488525,0.391588419675827,1.3592197895050049,1374.645753,1199.3448831,1592.933082,1268.32463355,482.11618845,1529.22494205,1279.0956984000002,441.6009312,21.975308641975307,set #1
1970-01-01 00:00:18.768263659,3.413923740386963,0.3916977047920227,1.3672804832458496,-435.64185249,-581.67585879,-489.58207506,-606.19110396,700.59124161,2814.96884331,940.23527325,-12.908102999999997,22.22222222222222,set #1
1970-01-01 00:00:18.777214369,3.413147211074829,0.3917083442211151,1.375140905380249,1328.25900324,-239.21840436,151.78751796,-63.668155590000005,-566.52012534,2591.06889288,611.91596466,24.86616444,22.469135802469136,set #1
1970-01-01 00:00:18.787449679,3.4123270511627197,0.3915877342224121,1.3828908205032349,1695.8577089999999,1234.41925971,272.7051444,261.09866796,-263.30847036,2631.8202245400003,958.02620043,300.80480586000004,22.716049382716047,set #1
1970-01-01 00:00:18.797422251,3.4115328788757324,0.3913923501968384,1.3904016017913818,2773.24696857,1140.5724657600001,1036.02351177,779.2547205300001,-900.36640629,2574.50038833,981.42814029,433.94134679999996,22.962962962962962,set #1
1970-01-01 00:00:18.807282767,3.41068172454834,0.3911251723766327,1.397756814956665,1738.37009268,-443.05277523,107.52924546,14.992754009999999,-512.56648833,2534.9058130500002,478.2072087,28.51591041,23.209876543209877,set #1
1970-01-01 00:00:18.817069373,3.4098668098449707,0.3907186985015869,1.4049763679504395,3811.88906163,1013.0013882300001,1470.8156810100002,1422.36890289,-1000.9352172299999,2088.34519413,1252.28281659,822.68960241,23.456790123456788,set #1
1970-01-01 00:00:18.827262721,3.4090631008148193,0.39023256301879883,1.4120112657546997,3544.7550290100003,1737.25584084,1553.0840169,1417.2358668,533.19882603,1862.3423286,961.03382934,442.49082150000004,23.703703703703702,set #1
1970-01-01 00:00:18.837171397,3.4082655906677246,0.389424592256546,1.4185585975646973,1665.82892892,-264.11626136999996,49.59439485,-54.7029327,160.88010354,1169.97405135,250.93653351,-146.48244858,23.950617283950617,set #1
1970-01-01 00:00:18.847258887,3.4076461791992188,0.3888551890850067,1.4255201816558838,623.95192353,-213.4343094,-260.2272192,-414.62013723,-353.14108011,987.13823481,353.40387108000004,120.12358839000001,24.197530864197528,set #1
1970-01-01 00:00:18.857335648,3.407059907913208,0.3879106938838959,1.4321430921554565,850.0645920000001,1313.4288211199998,681.12868512,264.55452192,-237.72395712,760.74283584,121.04715168,583.2621350400001,24.444444444444443,set #1
1970-01-01 00:00:18.867241702,3.4065024852752686,0.3872165381908417,1.4388136863708496,281.96848836,1029.940158,131.1370866,82.00438584000001,-638.80383138,501.24577542,-179.79350766,457.48673646,24.691358024691358,set #1
1970-01-01 00:00:18.877176127,3.405958890914917,0.3862816095352173,1.4449390172958374,836.55934791,1495.0626366000001,1312.20970023,964.67767539,-289.90930722,397.95300363,957.5427548700001,505.59101853000004,24.93827160493827,set #1
1970-01-01 00:00:18.887345395,3.405493974685669,0.3853752613067627,1.4510492086410522,-644.8059813000001,353.6017446,559.8976324500001,592.5974145,-241.6640499,282.0264486,267.36043620000004,227.72029605,25.185185185185183,set #1
1970-01-01 00:00:18.897384247,3.4050943851470947,0.3844156861305237,1.4571021795272827,-1096.9355904,117.53215499999993,619.12691178,828.36087906,-700.9208037000001,245.19749787,613.29006258,144.32916927000002,25.432098765432098,set #1
1970-01-01 00:00:18.907295308,3.4047043323516846,0.38344237208366394,1.462912917137146,42.08554428000002,368.82697176,644.2474428,827.5445802,-501.63253764,-194.7289422,542.8519902,-100.86976224,25.679012345679013,set #1
1970-01-01 00:00:18.917315564,3.4042134284973145,0.3824748992919922,1.4686279296875,379.56216792,980.28597888,1025.57878956,1065.56789664,-368.811729,-301.79308224,859.27126272,362.77258368,25.925925925925924,set #1
1970-01-01 00:00:18.927202067,3.403872013092041,0.3814466595649719,1.4743679761886597,-204.80559528,171.81417942000002,789.84006348,720.40324629,-745.39312887,-378.23689956,541.21965066,3.259404719999999,26.17283950617284,set #1
1970-01-01 00:00:18.937258324,3.403628349304199,0.38026079535484314,1.4799299240112305,-1102.4116818,811.42956804,-60.664557720000005,295.98176556,-1390.14836844,-403.7961954,622.27388964,182.02838004,26.419753086419753,set #1
1970-01-01 00:00:18.947631917,3.4033076763153076,0.37916314601898193,1.4852266311645508,-671.57980851,465.15245790000006,-1.3565229599999995,279.13324998,-1340.41824579,-370.94414565,447.64581459,-3.8389185900000022,26.666666666666664,set #1
1970-01-01 00:00:18.957154593,3.403078079223633,0.37799274921417236,1.4904170036315918,-651.21102228,185.78679522,478.84907616000004,592.63193964,-557.41164999,-366.76194126,648.7250952,155.65587219,26.91358024691358,set #1
1970-01-01 00:00:18.967156968,3.4027979373931885,0.3767610788345337,1.4955813884735107,-591.34623288,395.78798376,15.993095039999986,324.40035576,-753.46626576,-220.23501864,599.17801008,355.3061616,27.160493827160494,set #1
1970-01-01 00:00:18.977199635,3.4023640155792236,0.3755716383457184,1.5005762577056885,-71.32674120000001,-1760.26116435,92.67496095,440.27000355,-424.0734771,-121.7542989,62.00644125,-157.9992492,27.407407407407405,set #1
1970-01-01 00:00:18.987296900,3.401947021484375,0.3743453025817871,1.5054305791854858,1118.5662929999999,1218.326109,130.337532,492.63793799999996,-868.6161900000001,184.62654600000002,134.60304000000002,6.426341999999998,27.65432098765432,set #1
1970-01-01 00:00:18.997049651,3.401679754257202,0.3730323910713196,1.5101063251495361,-1253.2301741699998,-807.27092706,-960.32669031,-560.68563252,-367.94334954,-72.88007493,-293.41128258000003,-337.97082423,27.901234567901234,set #1
1970-01-01 00:00:19.007223448,3.401336193084717,0.3717021942138672,1.5147106647491455,836.83562664,1063.13509224,1242.9754116000001,1538.82651312,-94.97229456000001,119.5026924,749.29777728,581.3702544,28.148148148148145,set #1
1970-01-01 00:00:19.017356476,3.4010508060455322,0.37037044763565063,1.5191632509231567,-657.78620544,-280.08117852,147.46759092,688.2151036800001,203.40933288000002,94.941795,296.52471887999997,135.02853936,28.39506172839506,set #1
1970-01-01 00:00:19.027171693,3.4006521701812744,0.3690949082374573,1.5233956575393677,-661.86889431,1203.85541601,235.66784475000003,980.70123684,135.68832459,78.44653674,524.56723761,411.4097676,28.641975308641975,set #1
1970-01-01 00:00:19.038025460,3.4003372192382812,0.3678406774997711,1.5274196863174438,-325.26308880000005,546.3017976,-121.6224282,809.0124432,-347.181354,-11.682645,375.44750880000004,131.0427534,28.888888888888886,set #1
1970-01-01 00:00:19.047225318,3.3999531269073486,0.3666255474090576,1.5312715768814087,-1133.9689334999998,95.79496134,-37.78889321999999,619.70893998,-245.11901622,-68.40460692,156.14468532,-10.01114166,29.1358024691358,set #1
1970-01-01 00:00:19.057598672,3.3997700214385986,0.36541950702667236,1.5347617864608765,-1585.4996664,292.1926176,-498.459624,309.5375088,-325.82355936,-82.99080816,124.98873504,47.4686472,29.382716049382715,set #1
1970-01-01 00:00:19.067345462,3.3996329307556152,0.36418426036834717,1.5381468534469604,-623.94547644,-196.49384430000006,303.85830774,903.4163424,-349.15953695999997,83.92748832000001,152.17764822,23.197185179999998,29.629629629629626,set #1
1970-01-01 00:00:19.077543816,3.3996152877807617,0.3629993200302124,1.5412495136260986,-1372.70400384,-583.5139377600001,-569.41768104,-183.6520608,-1541.5443451200001,-116.06959104,-1.2707073600000012,-95.9723544,29.87654320987654,set #1
1970-01-01 00:00:19.087298951,3.3996403217315674,0.36181703209877014,1.5441944599151611,-231.09543911999998,796.0016114700001,476.82274224,756.6579699900001,260.78180856,-63.49159089,286.72227792,124.3581885,30.123456790123456,set #1
1970-01-01 00:00:19.097222647,3.3995251655578613,0.3607572913169861,1.546890377998352,-372.55828467,-25.579514999999958,525.56074428,663.59493603,99.6885942,8.418724860000001,243.86537214,164.23195854,30.37037037037037,set #1
1970-01-01 00:00:19.107228121,3.399582624435425,0.359733909368515,1.549333930015564,-16.40233374,645.7659702,400.04325543,557.14110426,163.49984742,-21.071166870000003,153.33914271,55.13355354,30.61728395061728,set #1
1970-01-01 00:00:19.117210469,3.3996243476867676,0.3587498962879181,1.5515930652618408,-1439.57443305,-1156.7674365,-993.3352946399999,-838.67053647,-13.04948385,-92.4525381,-259.89267018,-262.9726905,30.864197530864196,set #1
1970-01-01 00:00:19.127252659,3.3997364044189453,0.3578002452850342,1.5536917448043823,-517.5877777200001,-45.78766764,610.04812479,734.44987083,207.4840638,-137.53933674,178.0764804,138.58277940000002,31.11111111111111,set #1
1970-01-01 00:00:19.137405715,3.3997557163238525,0.3569360077381134,1.5556063652038574,-531.9401646,161.89443075000003,-81.06476624999999,170.3873886,115.39772985,-170.1191388,-96.09606825,91.16853915000002,31.358024691358022,set #1
1970-01-01 00:00:19.147053799,3.3998188972473145,0.35611310601234436,1.5573629140853882,19.85410791,294.01048716,300.19949583000005,387.65704302,-198.28904823000002,-197.33899341,87.22039520999999,118.43282061000001,31.604938271604937,set #1
1970-01-01 00:00:19.157284579,3.3998863697052,0.3554121255874634,1.558838963508606,30.710082389999997,329.59741230000003,-94.47781511999999,44.21987348999997,187.17771462000002,-240.20682972,2.4809822699999984,-43.56783405,31.85185185185185,set #1
1970-01-01 00:00:19.167306981,3.400085926055908,0.35472074151039124,1.5601097345352173,68.65533635999999,242.04873809999998,353.12579913,550.69244373,233.27607654,-195.89611625999999,293.47220604,243.60305151,32.098765432098766,set #1
1970-01-01 00:00:19.177223525,3.400202989578247,0.3541022837162018,1.5611836910247803,58.62346425,569.09009625,-357.30092774999997,-90.47219025000001,-343.19542725,-311.81163975,78.03081974999999,104.71395675,32.34567901234568,set #1
1970-01-01 00:00:19.187395177,3.400247812271118,0.35354456305503845,1.5620561838150024,423.69297945,379.50974139,208.91279877,344.96538726,-340.17056424000003,-313.23371196,74.86293243,39.15259959,32.59259259259259,set #1
1970-01-01 00:00:19.197320065,3.400306224822998,0.35304194688796997,1.5627254247665405,161.27069790000002,419.90152620000003,-320.2002999,-4.002336,200.0774451,-224.3941518,60.04685115000001,120.15041414999999,32.839506172839506,set #1
1970-01-01 00:00:19.207269749,3.400423049926758,0.3525623083114624,1.5632001161575317,-1146.89433144,-896.17136973,-1435.28072961,-1074.99666963,-499.92842757,-373.43025486,-317.9630844,-287.97105441,33.08641975308642,set #1
1970-01-01 00:00:19.217093072,3.400501251220703,0.35214322805404663,1.5634708404541016,-800.0533195200001,57.870671040000005,-270.56254992,-91.62596352,-283.01596128,-273.4035096,-26.03692416,-21.1357224,33.33333333333333,set #1
1970-01-01 00:00:19.227451644,3.4004807472229004,0.35182926058769226,1.5635321140289307,303.1254018,44.25821244,1007.13878616,784.1342215200001,-66.47992104,-337.26815304,-23.50561356,-21.756273240000002,33.58024691358025,set #1
1970-01-01 00:00:19.237161956,3.400663137435913,0.35157841444015503,1.5633583068847656,433.25238996,292.4004486,593.06026104,484.42619004,-903.24131508,-583.1347704000001,81.36031332,86.54815260000001,33.82716049382716,set #1
1970-01-01 00:00:19.247144780,3.4008634090423584,0.3513784110546112,1.5630114078521729,-393.3390864,-180.3505626,-253.63829400000003,-258.004344,73.672482,-667.7555430000001,-342.637035,-337.200084,34.07407407407407,set #1
1970-01-01 00:00:19.257278762,3.4009711742401123,0.35129719972610474,1.562504529953003,185.75887434,424.07509404,340.47328926,285.47467338,-186.32501862,-260.6821191,-16.158986999999996,20.03859,34.32098765432099,set #1
1970-01-01 00:00:19.267277322,3.401266574859619,0.3512968122959137,1.5617194175720215,482.1448983,621.7147911000001,321.87249588000003,266.05718802,-257.58545904,-41.41461792,89.34296592,148.07898846,34.5679012345679,set #1
1970-01-01 00:00:19.277459464,3.401548147201538,0.3513394296169281,1.5607662200927734,-152.92631328,-548.40741384,-297.61049760000003,-330.69758904,-96.09312648,177.98757288,-160.92680136,-100.61385672,34.81481481481481,set #1
1970-01-01 00:00:19.287354550,3.4018125534057617,0.35148483514785767,1.5595381259918213,-115.708788,20.421960000000002,-350.209626,-359.034468,331.2945285,221.810511,-206.6829375,-128.4277215,35.06172839506173,set #1
1970-01-01 00:00:19.297048649,3.4021339416503906,0.35164305567741394,1.5580310821533203,-695.1358377600001,-966.0277200600001,-719.10171255,-778.62841368,115.85847234,206.20353273,-295.84965306,-133.58014215,35.30864197530864,set #1
1970-01-01 00:00:19.307613454,3.4024205207824707,0.35184136033058167,1.5563526153564453,416.89948326,291.26471946000004,230.16233058,187.11783636,-137.42802372,163.91669424,-197.58506976,107.20971846,35.55555555555556,set #1
1970-01-01 00:00:19.317626557,3.402601718902588,0.35214975476264954,1.554465889930725,-170.75130384,-199.21030779,-174.22193958,-169.32090786,710.38742892,236.63692221,-362.07224313,-338.41175472,35.80246913580247,set #1
1970-01-01 00:00:19.327506861,3.4030003547668457,0.35247719287872314,1.5523951053619385,-18.86055834,-75.83563299000001,-380.23531922999996,-507.21008559,720.50025255,103.05465066,-500.41919108999997,-417.20067753,36.04938271604938,set #1
1970-01-01 00:00:19.337922892,3.4033164978027344,0.35284385085105896,1.5502533912658691,-21.897765240000005,135.96764376,-115.45737996,-196.93024104,412.74980448,-92.16410891999999,-772.982379,37.26894288,36.2962962962963,set #1
1970-01-01 00:00:19.347205481,3.4036262035369873,0.3532927930355072,1.5479307174682617,-520.00082823,-401.71326078,-492.41783994,-542.73041277,-1400.15907018,-179.69642535,-979.1987778299999,-120.12270504,36.54320987654321,set #1
1970-01-01 00:00:19.357372842,3.4039480686187744,0.3538399040699005,1.5454120635986328,671.66026356,442.28614403999995,299.55067194,339.99686136,-528.05041224,-139.85539776,-8.507630820000003,296.67359046,36.79012345679012,set #1
1970-01-01 00:00:19.367428860,3.4043009281158447,0.35441285371780396,1.542759656906128,-359.0243202,-259.36671540000003,-139.8496632,-109.237986,-804.682554,-100.80869759999999,-58.709968200000006,-0.45477120000000326,37.03703703703704,set #1
1970-01-01 00:00:19.377272925,3.4046387672424316,0.3550355136394501,1.5399820804595947,282.31229325000004,-67.515162,374.35229325,343.49465475,61.758810749999995,-197.1790665,-126.20839725,33.400341000000004,37.28395061728395,set #1
1970-01-01 00:00:19.387457452,3.404996156692505,0.35562533140182495,1.5370829105377197,358.29241656,288.3210798,-219.35685096000003,-200.82686988,-556.9614367199999,-186.53212656,-49.29835404000001,75.19087056000001,37.53086419753086,set #1
1970-01-01 00:00:19.397306046,3.405343532562256,0.3562644124031067,1.5340098142623901,76.83135876,317.69047128,105.49928064000001,58.71013044,-115.76802744,-240.72974250000001,-246.74615705999997,48.202453260000006,37.77777777777778,set #1
1970-01-01 00:00:19.407315573,3.4054884910583496,0.35707372426986694,1.5308126211166382,-222.06810639,116.64182478000001,-49.99506135000001,-138.30771435000003,309.9029388,-173.74981221,-226.13919198,98.34562023000001,38.02469135802469,set #1
1970-01-01 00:00:19.417425475,3.405918836593628,0.3576790392398834,1.5275390148162842,-232.1405775,-559.00978575,-427.7047515,-681.2512980000001,21.855395250000004,-144.9473025,-352.81233975,-100.3613325,38.2716049382716,set #1
1970-01-01 00:00:19.427535376,3.406416177749634,0.3582676947116852,1.5241570472717285,64.85037312000001,-11.73943056,235.13317152,53.32049424,150.73141824,-158.61495312,-115.39502832,112.05319008000001,38.51851851851852,set #1
1970-01-01 00:00:19.437329135,3.4068095684051514,0.3588801920413971,1.520688772201538,1101.1156806,729.0592101,702.5987046,618.42729,-117.0772941,-132.79629870000002,53.6548389,131.84344485,38.76543209876543,set #1
1970-01-01 00:00:19.447538218,3.4071576595306396,0.3595053255558014,1.5171743631362915,59.423846819999994,-51.89231346,255.17791727999997,75.5120964,-696.95989818,-299.69012892,-286.26255762,-57.73367028,39.01234567901234,set #1
1970-01-01 00:00:19.457383713,3.407611608505249,0.36012983322143555,1.513431429862976,-852.45254133,-1150.94503407,-585.00377715,-767.26499187,-534.0457898100001,-413.22303438,-935.28822738,-457.97357931,39.25925925925926,set #1
1970-01-01 00:00:19.467461428,3.408055543899536,0.3607211410999298,1.5096826553344727,-20.739537,48.31446672,-139.83940776,-288.17031516000003,-337.90667196000004,-375.07581852000004,-520.76634636,-29.413715760000017,39.50617283950617,set #1
1970-01-01 00:00:19.477311930,3.408432722091675,0.36130407452583313,1.5058388710021973,-184.3200372,-873.5328537,-267.9289431,-351.5051163,314.4513177,-394.8714432,-584.9841387,-114.68710890000001,39.75308641975308,set #1
1970-01-01 00:00:19.487129769,3.4088892936706543,0.3619348108768463,1.501700758934021,-96.25949736,276.91726296,-423.86045598,-426.46408389000004,-427.16316395999996,-316.83036216,-488.25884328,-34.24383066,40.0,set #1
1970-01-01 00:00:19.497049412,3.4093334674835205,0.3625520169734955,1.497536540031433,519.90029364,348.30536208,435.53782896,205.37724168,288.12788783999997,-211.72321092,-221.072631,135.90997056,40.24691358024691,set #1
1970-01-01 00:00:19.507406077,3.4097423553466797,0.36330798268318176,1.4934954643249512,-421.13532707999997,-406.18610409,-458.86952007,-646.02425394,289.63103676000003,-129.19235784,-560.42786553,-95.3183946,40.49382716049382,set #1
1970-01-01 00:00:19.517306885,3.4103024005889893,0.3640199303627014,1.4891527891159058,94.33644285,-359.6346897,-547.1662404,-665.4657516,168.7368891,31.376334600000003,-598.8851173500001,-118.2201033,40.74074074074074,set #1
1970-01-01 00:00:19.527416548,3.411104917526245,0.36462971568107605,1.4846220016479492,74.05789715999998,-39.63348948000001,-278.09038608000003,-451.58056944,5.598515519999999,99.93874956,-448.26245724,-241.27231752,40.98765432098765,set #1
1970-01-01 00:00:19.538030467,3.4117751121520996,0.36528825759887695,1.4798827171325684,838.0329274200001,187.32159693,344.3000379,175.71309873,-696.33788952,49.18330794,-25.88680614,238.91408736,41.23456790123456,set #1
1970-01-01 00:00:19.547035536,3.4124345779418945,0.3659113645553589,1.4748926162719727,-339.3890448,-80.39228496,-150.23194992,-347.124336,-1145.1389601600001,64.97245248,-149.36077728,15.99435552,41.48148148148148,set #1
1970-01-01 00:00:19.557308278,3.413283109664917,0.36653512716293335,1.4699097871780396,217.08197628,254.35979556,-152.77385916,-228.14535588,-705.70294548,106.79116734,-82.54994826,197.5227423,41.72839506172839,set #1
1970-01-01 00:00:19.566986880,3.414137125015259,0.3671207129955292,1.4647212028503418,-128.47086720000001,-109.5939936,-133.118544,-390.9136608,-508.7299152,-116.2148832,-241.15815360000002,36.7418688,41.9753086419753,set #1
1970-01-01 00:00:19.577257952,3.4149980545043945,0.36766737699508667,1.4592781066894531,-274.72214016000004,-146.65692288,87.49161408,-126.37028352,-129.29892768,-104.86233888000001,-264.91315968,-39.66394848,42.22222222222222,set #1
1970-01-01 00:00:19.587935290,3.415785312652588,0.3682498335838318,1.4538389444351196,793.5567236999999,110.2644348,284.08209569999997,-22.824738300000035,188.6019564,185.0730687,-158.6477802,60.463540800000004,42.46913580246913,set #1
1970-01-01 00:00:19.597278199,3.4166100025177,0.3687654137611389,1.4481672048568726,138.43523655,226.48411656,320.69443302,164.25582498,98.17186665,196.69456404000002,-242.66741304,-120.17950386000001,42.716049382716044,set #1
1970-01-01 00:00:19.607303700,3.417356252670288,0.36931711435317993,1.442430019378662,309.13857,415.922013,-77.23263600000001,-180.854193,-128.916645,330.64785,-144.965574,68.414931,42.96296296296296,set #1
1970-01-01 00:00:19.617075762,3.4181320667266846,0.36982157826423645,1.4366146326065063,-753.41410794,-1116.14868768,-594.25935738,-700.74124458,-248.83205802,-388.61173806,-504.81916758,-366.17411064,43.20987654320987,set #1
1970-01-01 00:00:19.627271256,3.4189703464508057,0.3704044818878174,1.4309507608413696,425.34105432,342.3271956,241.44880656,159.60334728,-285.52578288,-1218.1405984799999,166.8648852,223.74092208000002,43.456790123456784,set #1
1970-01-01 00:00:19.637359938,3.4198453426361084,0.3708723187446594,1.4251606464385986,-188.22697842,-314.10011801999997,-39.66447888,-112.12719024,152.47330176000003,-2091.11170008,-17.210769420000005,76.56375636,43.7037037037037,set #1
1970-01-01 00:00:19.647427640,3.4205801486968994,0.37125542759895325,1.419113278388977,273.69873959999995,309.0418032,-388.403496,-372.00569640000003,180.51301320000002,-2785.059654,24.19820519999996,-80.69933040000001,43.95061728395061,set #1
1970-01-01 00:00:19.657529673,3.4213149547576904,0.37159594893455505,1.413056492805481,792.13219683,276.91212393,304.87639923,236.4365952,795.56678175,-2967.51401544,56.58700086,15.04908834,44.19753086419753,set #1
1970-01-01 00:00:19.667259059,3.422039747238159,0.3718893229961395,1.4069703817367554,-570.3742601700001,-302.59834371000005,-537.04846026,-519.53874765,427.26460764,-3023.12665629,-194.70111843,-282.85946793,44.44444444444444,set #1
1970-01-01 00:00:19.677445969,3.422696590423584,0.3721257746219635,1.4008625745773315,16.820099789999972,-14.013633659999982,-299.34543522,-336.93795837000005,-63.325812809999995,-3178.0665251399996,-121.55259792,-112.63042596000001,44.691358024691354,set #1
1970-01-01 00:00:19.686939559,3.423266887664795,0.3723655939102173,1.3947011232376099,226.09918578,-62.378807789999996,-78.25929189,-57.29575527,-47.37437835,-3139.40560986,-208.5943587,-216.59583386999998,44.93827160493827,set #1
1970-01-01 00:00:19.697446665,3.42390513420105,0.3727138936519623,1.3888697624206543,-328.51508235,-668.7561777,-399.04540844999997,-350.75560455,417.80423294999997,-3006.6867324,-531.9443142,-322.19704335000006,45.18518518518518,set #1
1970-01-01 00:00:19.707490048,3.424497604370117,0.37300756573677063,1.3827869892120361,-187.58812799999998,-97.36429248,-308.28242016,-162.16920096,-118.24066176,-2733.72052512,-4.883424000000005,-153.75287616,45.432098765432094,set #1
1970-01-01 00:00:19.717095456,3.4251551628112793,0.3731260299682617,1.376326322555542,-1035.49743648,-842.10543456,-724.592544,-683.26682112,121.11954816000001,-2712.3169008,-310.26585408,-377.99472671999996,45.67901234567901,set #1
1970-01-01 00:00:19.727435431,3.4259135723114014,0.373214989900589,1.3698207139968872,-100.35539670000001,-183.50030322,-213.43079082,-97.36961597999999,54.701493209999995,-2569.9224482100003,-67.01352957,-90.89198586,45.925925925925924,set #1
1970-01-01 00:00:19.737551293,3.4268317222595215,0.37350770831108093,1.363588809967041,-43.70871063,12.389444729999997,-318.96248514,-144.55263459,1035.61950024,-2279.22488898,-35.652032520000006,-27.41227164,46.172839506172835,set #1
1970-01-01 00:00:19.747257552,3.4276866912841797,0.3736865222454071,1.3571395874023438,233.29474272,-131.0948496,67.23376608,168.35010192000001,-147.19799328,-2075.3198980800003,-130.63202256,-74.4072264,46.41975308641975,set #1
1970-01-01 00:00:19.757804236,3.428576707839966,0.37361475825309753,1.3503665924072266,-454.2476328,-275.90771208,-630.22324404,-491.39274288,639.87913704,-1892.58014088,-223.85474904,-209.23476444,46.666666666666664,set #1
1970-01-01 00:00:19.767102084,3.429567575454712,0.373680979013443,1.3437987565994263,-374.72332872,-597.84072816,-477.86219832,-377.21375172,-668.0498058000001,-1796.1246809999998,-368.44110264,-291.98567268,46.913580246913575,set #1
1970-01-01 00:00:19.777080140,3.4305293560028076,0.37360262870788574,1.3371659517288208,-54.637362,-106.33686180000001,-54.713451000000006,41.685165600000005,121.4598528,-1639.2399816,-10.2358464,-16.9113282,47.160493827160494,set #1
1970-01-01 00:00:19.787556252,3.4313278198242188,0.37342625856399536,1.3304879665374756,-970.4248023600001,-765.82122396,-1110.88554096,-911.5029612000001,-1728.1319203199998,-1597.41047856,-441.86009712000003,-309.61850556,47.407407407407405,set #1
1970-01-01 00:00:19.797197661,3.432084798812866,0.3731529116630554,1.3238372802734375,-36.144765930000005,-153.77087583,-234.80826642,-185.26936935,-1068.3324732600001,-1703.22533199,22.723779,-35.667880950000004,47.654320987654316,set #1
1970-01-01 00:00:19.807785830,3.4327986240386963,0.37277311086654663,1.3171314001083374,-174.0950484,170.70599909999999,-19.805526,-32.4830532,-244.3984959,-1541.6287848,225.5060535,8.518734900000002,47.901234567901234,set #1
1970-01-01 00:00:19.817503533,3.433558940887451,0.3722343146800995,1.3104346990585327,107.50287053999999,-9.05339253,115.84180608000001,139.97974965,-697.96994826,-1295.44562628,118.83695187000001,-95.27298533999999,48.148148148148145,set #1
1970-01-01 00:00:19.827262244,3.434267282485962,0.3716532588005066,1.303757905960083,354.84495228000003,254.73389759999998,281.596146,405.99815880000006,178.39409484,-1244.0683944,94.45414368,-97.61495172,48.395061728395056,set #1
1970-01-01 00:00:19.837218842,3.4349899291992188,0.3710372745990753,1.2972006797790527,85.86334146,-49.258645800000004,-144.80252202,-26.25553476,-780.98227272,-756.2496123000001,45.168238439999996,-115.48573608000001,48.641975308641975,set #1
1970-01-01 00:00:19.847880444,3.435826539993286,0.37019380927085876,1.2904021739959717,-18.0076104,-292.71598356000004,-307.39643376,-215.18258268,-847.09182948,-820.18315236,-30.268786079999995,-83.702619,48.888888888888886,set #1
1970-01-01 00:00:19.857158503,3.436370372772217,0.36958417296409607,1.2840851545333862,214.99658154000002,3.4695499800000036,-131.30700063,-35.75067132,599.8724756700001,-505.64616258000007,33.69852018,-8.684414309999987,49.1358024691358,set #1
1970-01-01 00:00:19.866970620,3.437062978744507,0.3687915802001953,1.2776051759719849,-299.40853799999996,-473.0932128,-480.3960876,-470.1450858,37.834212,-508.4218698,-221.7203508,-216.9943074,49.382716049382715,set #1
1970-01-01 00:00:19.877401910,3.4376347064971924,0.3679424226284027,1.2710849046707153,124.83894540000006,70.17184200000003,143.53243319999999,185.76921869999998,496.416531,-421.0909794,-83.27030399999998,-108.15076350000001,49.629629629629626,set #1
1970-01-01 00:00:19.887212119,3.43823504447937,0.36703377962112427,1.2644959688186646,-68.44474377,237.57572124,-12.36164046,148.56062364000002,380.74647234,-279.8012256,71.34090834,54.74241863999999,49.87654320987654,set #1
1970-01-01 00:00:19.897160849,3.438892364501953,0.366083562374115,1.2579364776611328,62.25763206,398.41426989,-103.49403753000001,59.92074933000001,44.539286610000005,-262.55664201,-104.66146899,-207.52856904,50.123456790123456,set #1
1970-01-01 00:00:19.908991656,3.439586877822876,0.3650174140930176,1.2513288259506226,-254.81243424,103.87367016,-289.95148416,-167.80338432,-443.4292512,-181.20406200000002,-77.382708,-115.76817095999999,50.37037037037037,set #1
1970-01-01 00:00:19.917237363,3.4403018951416016,0.36391481757164,1.2447774410247803,-463.53429915,-310.12072065,-531.93090834,-406.00247298,201.42913167,-227.40046407,69.68096733,-129.68402772,50.61728395061728,set #1
1970-01-01 00:00:19.927303157,3.440999984741211,0.36278069019317627,1.238275170326233,470.28655674,232.68820809000002,213.41199204000003,306.68355354,344.02452318,-147.47014737,160.72815057,17.21883228,50.864197530864196,set #1
1970-01-01 00:00:19.937477193,3.4417407512664795,0.36156442761421204,1.23176109790802,573.04958139,253.16952882,114.86595276,218.98431984,86.88379089,-12.80978907,44.38063344,-108.55957749000001,51.11111111111111,set #1
1970-01-01 00:00:19.947154841,3.4425511360168457,0.36025694012641907,1.2252544164657593,-330.07447356,-672.03270225,-412.54966272,-320.01027006000004,555.53033445,-58.03332327,-182.19918015,-221.76659583,51.358024691358025,set #1
1970-01-01 00:00:19.957483611,3.443371295928955,0.3588546812534332,1.2186775207519531,-563.1476393400001,-710.14578648,-579.57259269,-459.39202998,611.15002065,63.76196268000001,-257.79639171,-275.8740777,51.60493827160494,set #1
1970-01-01 00:00:19.967085442,3.444039821624756,0.35740503668785095,1.212064504623413,293.64750792,22.0434591,-382.97057916,-262.24449654,608.93706666,102.11700798,28.28224152,-84.13157376000001,51.85185185185185,set #1
1970-01-01 00:00:19.977729401,3.444582939147949,0.35585707426071167,1.2053428888320923,441.03771621,47.99953196999999,71.64569295,234.9289917,1098.34742238,0.2738564399999994,72.99901245000001,-93.1413444,52.098765432098766,set #1
1970-01-01 00:00:19.987699828,3.445176601409912,0.3542182147502899,1.198628306388855,220.01422716000002,-136.37957892,-275.05868208,-28.37965728,740.33180832,96.63871308,-112.23301128,-157.7452734,52.34567901234568,set #1
1970-01-01 00:00:19.997388205,3.445835828781128,0.3524353802204132,1.191849946975708,539.57063355,-159.9103857,-51.0879915,158.33101050000002,285.72820185,163.46660655,-99.1403907,-142.55158905,52.59259259259259,set #1
1970-01-01 00:00:20.008008799,3.4465832710266113,0.35061508417129517,1.1852248907089233,-178.92318522000002,-609.52719438,-639.32426766,-444.6359424,481.15043223,173.28293619000002,-256.73950458,-212.62206381000001,52.839506172839506,set #1
1970-01-01 00:00:20.017323336,3.447387456893921,0.3487383723258972,1.1785962581634521,-211.6206612,-410.2997028,-224.39580384,-54.476775599999996,250.47501336,230.23651560000002,-66.52352304,-42.93765528,53.08641975308642,set #1
1970-01-01 00:00:20.027206263,3.4480068683624268,0.34673625230789185,1.1717363595962524,167.18899821,-288.78075915,-156.56562168000002,131.15960481,169.68028428000002,240.01088514,238.44250287,-136.07507393999998,53.33333333333333,set #1
1970-01-01 00:00:20.037631592,3.4486565589904785,0.3446345329284668,1.1648707389831543,365.09509296,-116.07312912,-149.58527688,97.34632752,396.177912,207.16198464,233.93916936,-9.6980988,53.58024691358025,set #1
1970-01-01 00:00:20.047390065,3.449348211288452,0.3423885703086853,1.157973289489746,478.19363085000003,-84.2495589,-150.4809735,178.8848178,388.04268555,276.26386905000004,252.61422615,107.04895305,53.82716049382716,set #1
1970-01-01 00:00:20.057534537,3.4498424530029297,0.34012192487716675,1.1510769128799438,620.2910259,-350.49336270000003,-138.52222799999998,211.13266940999998,129.88133574,284.25612228,6.035211390000001,-13.6117254,54.07407407407407,set #1
1970-01-01 00:00:20.067631802,3.4503376483917236,0.3377654552459717,1.1441919803619385,683.21302764,-251.26376418,-178.24556958000002,117.59961095999999,230.92740294,263.78525004,117.93655536,25.63554162,54.32098765432099,set #1
1970-01-01 00:00:20.077485642,3.4509594440460205,0.33524301648139954,1.1373701095581055,494.7798765,-809.3946034200001,-481.31567562,-252.35669081999998,8.476567320000001,286.94843268,-48.74440038,-151.46756352,54.5679012345679,set #1
1970-01-01 00:00:20.087336383,3.451611280441284,0.33264532685279846,1.130584955215454,1071.80414328,194.81944248000002,-78.89525553,84.98365823999998,-133.72087716,276.50244843,268.08384408,64.47488385,54.81481481481481,set #1
1970-01-01 00:00:20.097328267,3.452406644821167,0.3299327492713928,1.1238670349121094,1012.3984455,249.70425246000002,240.42662787,451.20323391,-10.821675149999997,183.75165939,378.05281254,78.4919304,55.06172839506173,set #1
1970-01-01 00:00:20.107387623,3.4531071186065674,0.3271501064300537,1.1172243356704712,992.39064795,245.81774919000003,70.71522081,323.73059901,-281.52546942,125.65179978,397.10967465,220.08330201,55.30864197530864,set #1
1970-01-01 00:00:20.117224536,3.4538471698760986,0.32420891523361206,1.1105095148086548,284.832678,-467.31745632,-325.5028452,-73.63496712,86.11063968,251.72151888,281.71903344000003,-86.74701672,55.55555555555555,set #1
1970-01-01 00:00:20.127154669,3.454423189163208,0.3212410509586334,1.1038638353347778,-70.70185239,-366.91942014,-275.92612827,-50.458716360000004,230.24454453,264.59831268,307.9983543,-19.808767680000003,55.80246913580247,set #1
1970-01-01 00:00:20.137458882,3.4549989700317383,0.3181140720844269,1.0971145629882812,197.15464158,197.77621968,86.32279421999999,420.41103780000003,-212.27041368,322.24905492,680.15937054,153.52851462,56.04938271604938,set #1
1970-01-01 00:00:20.147243342,3.4557745456695557,0.31487730145454407,1.0904756784439087,-499.61311608,-161.50053192000001,-89.03944452,187.02719802000001,-140.98743905999999,186.96864732,645.59265654,211.0098549,56.29629629629629,set #1
1970-01-01 00:00:20.157153926,3.4563870429992676,0.31147465109825134,1.083743929862976,-961.4659423200001,-217.32577308000003,-391.78076496,-258.00590712,74.9166951,119.07492012,638.83571622,269.56736664,56.54320987654321,set #1
1970-01-01 00:00:20.167488656,3.457033157348633,0.3079611659049988,1.0771292448043823,-399.16942416,320.32479023999997,-80.8620072,-37.31266656,-114.50477375999999,100.1677248,269.21233248,299.61295104,56.79012345679012,set #1
1970-01-01 00:00:20.177246651,3.4575626850128174,0.30433735251426697,1.0704492330551147,-277.60332912,-379.03774623,-403.7274501,-193.82353809,-241.00771812,11.86104114,230.87692953,-187.69403055,57.03703703703703,set #1
1970-01-01 00:00:20.187176070,3.458080530166626,0.30056339502334595,1.0637686252593994,-254.10816209999996,-254.12447580000003,-387.27872429999996,-289.27530060000004,-217.0410684,-76.68887459999999,-13.000533000000004,-251.98401539999998,57.28395061728395,set #1
1970-01-01 00:00:20.197506509,3.4585583209991455,0.2965783178806305,1.0569956302642822,324.93392802,-158.65731375000001,-257.13392172,-291.41233407,-74.57051394,44.28670389,179.4496275,-256.88053599,57.53086419753086,set #1
1970-01-01 00:00:20.207309565,3.4590790271759033,0.2924993932247162,1.0502781867980957,586.1991583500001,-101.67707745,-162.66764085,385.22500575,717.98725245,376.88887665000004,440.71932645,-32.76881985,57.77777777777777,set #1
1970-01-01 00:00:20.217584929,3.459679365158081,0.28827518224716187,1.043486475944519,1137.59373195,293.69395614,-52.97472024,481.95086978999996,3305.86185072,502.70807028,201.70226505,-176.38779951,58.02469135802469,set #1
1970-01-01 00:00:20.227354607,3.460256814956665,0.2839644253253937,1.0367683172225952,644.61429474,150.73979739,-108.68751348,398.18211069,2376.21113964,737.8908833400001,56.19297216,-112.95642267,58.2716049382716,set #1
1970-01-01 00:00:20.237328133,3.460747241973877,0.2794821858406067,1.0299724340438843,-434.17911966,-439.23036729,-689.78232765,-33.833049120000005,1426.46769057,692.2436160899999,-680.89182408,-486.68369334,58.51851851851851,set #1
1970-01-01 00:00:20.247692666,3.461256504058838,0.274854838848114,1.023122787475586,-308.00035422,40.863960539999994,-125.07945450000001,380.61321402,799.38284634,628.33835376,-642.08370798,-268.527948,58.76543209876543,set #1
1970-01-01 00:00:20.257176003,3.461697816848755,0.27019017934799194,1.0163685083389282,-63.004931340000006,-13.31004051,-153.61882107000002,209.95152087,588.19808775,653.718234,-635.1114611400001,-289.37823057,59.01234567901234,set #1
1970-01-01 00:00:20.267310939,3.462124824523926,0.2653466463088989,1.0094588994979858,-382.26485934000004,-92.47235751,-381.7735662,-21.45554931,543.7624639200001,952.3129862999999,-493.82162466,-536.63815023,59.25925925925925,set #1
1970-01-01 00:00:20.277379355,3.462571620941162,0.26035231351852417,1.00255286693573,354.32330895,531.6059892,-125.67561825000001,151.22112330000002,1085.32267155,1588.8834117,-232.71326715,-237.7498032,59.50617283950617,set #1
1970-01-01 00:00:20.287501177,3.4629225730895996,0.25533026456832886,0.9957852959632874,-417.08526171,-287.43780351,-291.3621321,-8.59744314,-1603.7762208000001,923.53873248,-316.26658947000004,-392.76350919000004,59.75308641975308,set #1
1970-01-01 00:00:20.297328553,3.46321702003479,0.25023141503334045,0.989020049571991,-465.63933,-200.40526896,-454.30701693,-246.20261445,-3264.97435407,823.2043443,-79.05990105,-280.06015713,60.0,set #1
1970-01-01 00:00:20.307334981,3.4635565280914307,0.245123952627182,0.9823606610298157,58.84536606,325.38411828,-112.87682445,57.50038476,-2719.8408669900004,1050.01331136,266.74116807,-233.32513581,60.24691358024691,set #1
1970-01-01 00:00:20.317398390,3.463796854019165,0.23998568952083588,0.9758278727531433,39.018837,17.9784423,-236.8979301,-32.2044411,-2032.0828592999999,909.8052561,501.6710244,-143.337558,60.49382716049382,set #1
1970-01-01 00:00:20.327460847,3.464014768600464,0.23472942411899567,0.9693329334259033,-210.40071702,-394.70500953,-389.10734772,-221.25815673,-2278.8087816,640.71024108,438.44086611,-399.21431472,60.74074074074074,set #1
1970-01-01 00:00:20.337383113,3.464185953140259,0.22943836450576782,0.9628684520721436,-70.1496081,21.16371153,-217.60464921000002,-120.54246321000002,-907.53949533,502.59832155,170.38206939,-246.12011853,60.98765432098765,set #1
1970-01-01 00:00:20.346949420,3.464277744293213,0.2240818589925766,0.9565275311470032,-127.80563640000001,-480.5354892,-282.0651054,-208.4311164,-3037.4533098,611.800059,189.847203,-231.382203,61.23456790123456,set #1
1970-01-01 00:00:20.357828936,3.4642903804779053,0.2186625897884369,0.9502914547920227,211.10436672,290.43251016,-54.94799856,4.33680936,329.59182048,-274.38313032,78.23101416,-155.08623312,61.48148148148148,set #1
1970-01-01 00:00:20.367415270,3.4643056392669678,0.21320700645446777,0.9441556930541992,244.8542733,368.8898889,-4.3034355,70.9934355,-656.2872108,-360.10254150000003,53.9024304,-127.28633970000001,61.72839506172839,set #1
1970-01-01 00:00:20.377292237,3.4643473625183105,0.20768369734287262,0.9381020665168762,208.16913506999998,34.51317012,-155.95996259999998,-81.59461167,-1442.88091623,-549.81615195,-30.922218209999997,-153.72058923,61.9753086419753,set #1
1970-01-01 00:00:20.387524447,3.4643125534057617,0.2021702229976654,0.932138979434967,-231.32970432,-254.93605371,-454.88210742,-369.07779402,172.97862348,-429.96887154,-329.39222979,-347.86615227,62.22222222222222,set #1
1970-01-01 00:00:20.397284589,3.46427583694458,0.19648098945617676,0.9261625409126282,27.003895229999998,76.42838073,-258.40371375,-229.1543826,1234.4385912300002,-518.46186717,-332.31178578000004,-64.59214593,62.46913580246913,set #1
1970-01-01 00:00:20.407095990,3.4641408920288086,0.19080305099487305,0.920348048210144,-287.4589302,-310.0706232,-359.93305139999995,-325.10174969999997,644.6441040000001,-563.228913,-435.9304638,-264.74059950000003,62.716049382716044,set #1
1970-01-01 00:00:20.417347035,3.4640157222747803,0.18494506180286407,0.9145516753196716,231.39692745000002,402.2991804,-157.72898505,-153.40955175,1962.4043127,-611.35785165,-243.08747384999998,-112.48898505000001,62.96296296296296,set #1
1970-01-01 00:00:20.427593074,3.4639008045196533,0.1788385808467865,0.9087526202201843,-54.68184852,126.40055376000001,-219.98530944,-196.39537866,1233.1993525799999,-610.95105864,-463.62641286,-106.32561888000001,63.20987654320987,set #1
1970-01-01 00:00:20.437328181,3.463594436645508,0.17275947332382202,0.9031492471694946,-302.71583316000005,46.847526959999996,-271.24106841,-266.22672024,1286.10852084,-717.0660213599999,-523.86321897,-154.46690844,63.456790123456784,set #1
1970-01-01 00:00:20.447131476,3.463322639465332,0.16642668843269348,0.8975595235824585,-330.2577564,7.3261281600000006,-240.71234616,-220.79127564,1003.7692626,-594.1573716,38.43767928,-178.40632055999998,63.7037037037037,set #1
1970-01-01 00:00:20.456998191,3.463021755218506,0.1601296216249466,0.892139732837677,-207.19469472,151.85631981,-94.81656366,-86.40687081,729.42162696,-531.85036671,64.10138124,-51.26073342,63.95061728395061,set #1
1970-01-01 00:00:20.467353663,3.46272611618042,0.15381385385990143,0.8867940306663513,-491.78985726,10.706285459999998,6.278356889999998,69.0257139,-424.72792947,-1556.36299884,56.222927670000004,-267.60664281,64.19753086419753,set #1
1970-01-01 00:00:20.477775654,3.462491989135742,0.1474859118461609,0.8816384077072144,-112.05909390000001,333.59829984,128.22917016,298.93460532,-481.82231604000003,-2244.0187809,207.65224193999998,-240.46521252,64.44444444444444,set #1
1970-01-01 00:00:20.487422785,3.462212562561035,0.14105957746505737,0.8765816688537598,-333.36065490000004,44.4777606,-2.6870493,-64.36132755,-375.05214435,-805.8475893,-33.7922676,-162.1679319,64.69135802469135,set #1
1970-01-01 00:00:20.497173152,3.461852550506592,0.13462227582931519,0.8716149926185608,-344.44666464,195.50833536000002,-334.63974336,-130.07563296,-515.51858592,-721.4484076800001,-200.90159232,-208.26228384,64.93827160493827,set #1
1970-01-01 00:00:20.507796845,3.461447238922119,0.12804582715034485,0.8666737079620361,-325.17665115,129.02794125000003,-342.59467125000003,76.5622962,-1108.78995435,91.46543249999999,-74.9665059,-103.60465049999999,65.18518518518518,set #1
1970-01-01 00:00:20.517145476,3.4610586166381836,0.12146829813718796,0.8619431853294373,-192.85015152,363.48576887999997,-321.47288784,133.2008028,-607.27001244,1024.90846224,-186.83709407999999,-295.1775294,65.4320987654321,set #1
1970-01-01 00:00:20.527610860,3.4606645107269287,0.11475565284490585,0.8572606444358826,-438.498567,73.8537852,-250.99058399999998,-5.2958958,-53.834890200000004,2267.1847224000003,-489.8347116,-234.5779254,65.67901234567901,set #1
1970-01-01 00:00:20.537539801,3.4601762294769287,0.10805223137140274,0.852675199508667,-358.80582075,36.11962692,6.832761,66.26119383,1070.65186215,3833.48171817,-487.08186501,-128.9706717,65.92592592592592,set #1
1970-01-01 00:00:20.547154984,3.459718704223633,0.10132966190576553,0.8482174873352051,-60.2944992,321.96594456,11.847600960000001,201.8043144,1574.9911476,4356.36496464,-180.6007164,130.9114716,66.17283950617283,set #1
1970-01-01 00:00:20.557583413,3.4593191146850586,0.09472889453172684,0.8440273404121399,-326.75642922,-28.89309033,-105.75897696,-50.56950288,-420.50016216,4265.87741892,108.09711276,-172.69897242000002,66.41975308641975,set #1
1970-01-01 00:00:20.567248664,3.4589951038360596,0.08795391768217087,0.8399174213409424,-274.35249504,-88.59669312,-325.36511904,-130.86786024,-1531.91062128,3460.8577848,80.10963480000001,-132.84606191999998,66.66666666666666,set #1
1970-01-01 00:00:20.577204070,3.4585797786712646,0.08132429420948029,0.8359420299530029,-379.6493493,-17.3593017,-203.7677304,-55.479762,927.2440632,3016.1629835999997,-66.1963809,-76.6043655,66.91358024691358,set #1
1970-01-01 00:00:20.587241730,3.458171844482422,0.07463793456554413,0.8320280909538269,-513.163638,-187.9165392,-229.025277,-232.7079612,1816.4334552,2670.6118218,-249.755337,-161.5225443,67.1604938271605,set #1
1970-01-01 00:00:20.597173533,3.457828998565674,0.06798968464136124,0.8283340334892273,-81.87785463,145.46220429,-2.4407900399999995,-63.76135311,171.76889145,2233.66049322,-71.02917939,-40.69998036,67.4074074074074,set #1
1970-01-01 00:00:20.607579074,3.4574196338653564,0.06137625873088837,0.8247681260108948,-336.65876322,-98.19275856,-88.74833214,-120.85262592,373.98093564,1922.69870676,102.77156838,-144.60991038,67.65432098765432,set #1
1970-01-01 00:00:20.617266259,3.45693039894104,0.05478912591934204,0.821284294128418,-281.0679495,12.56638929,-60.23202081,-49.600564649999995,491.14820976,1564.2725482800001,-24.09372225,-18.910988070000002,67.90123456790123,set #1
1970-01-01 00:00:20.627168975,3.4564311504364014,0.04821155592799187,0.817889392375946,-358.8594165,-34.088808,-34.767798,-28.560207000000002,506.93032650000004,1083.9742095000001,-179.93692275,-68.8906335,68.14814814814814,set #1
1970-01-01 00:00:20.637427411,3.4558637142181396,0.041866954416036606,0.8147165775299072,-295.7645145,-89.25317856,-17.46507087,-16.464727110000002,575.7340933500001,438.03949332,164.44950717,-110.89838058,68.39506172839506,set #1
1970-01-01 00:00:20.647885403,3.4553730487823486,0.035463325679302216,0.8116178512573242,-215.9159886,-19.531022550000003,-35.991398430000004,4.626553230000001,60.01694244000001,244.25360075999998,119.83986338999999,-99.26375394,68.64197530864197,set #1
1970-01-01 00:00:20.657620272,3.4548778533935547,0.02918495051562786,0.8085997700691223,-147.78936432,65.95748640000001,4.021243200000001,93.82980672,324.71428080000004,38.32325952,35.503840319999995,-36.302154720000004,68.88888888888889,set #1
1970-01-01 00:00:20.667238793,3.454378366470337,0.02296428382396698,0.8056169748306274,-399.87472941,-430.69351767000006,-71.18037576,-31.49081715,-794.66098257,-613.88319759,5.623399859999999,-209.7325854,69.1358024691358,set #1
1970-01-01 00:00:20.677468142,3.453885793685913,0.01680677756667137,0.8027833700180054,-151.39559058,-52.56407052,114.84845502,96.17711064000001,-1131.7005258,-853.34105532,62.65332918,53.03449788,69.38271604938271,set #1
1970-01-01 00:00:20.687280259,3.4533090591430664,0.01073700562119484,0.8001217246055603,-247.12457172,-207.54323031,61.776505050000004,112.99940808,-766.21421409,-1123.19773332,143.89624041,-5.85252525,69.62962962962962,set #1
1970-01-01 00:00:20.697472891,3.4527015686035156,0.004824873059988022,0.797543466091156,30.900421110000007,77.70744501,60.14572629,119.73351195,-58.07495381999999,-1417.9083984,107.53312869000001,-139.36980837000002,69.87654320987654,set #1
1970-01-01 00:00:20.707462868,3.4521095752716064,-0.0010356232523918152,0.7950106263160706,-7.761296399999999,-18.1020372,102.09885192,123.43974084,-1283.4320023199998,-1646.41096308,129.73766676,-13.169370239999997,70.12345679012346,set #1
1970-01-01 00:00:20.717125497,3.4515540599823,-0.006915566977113485,0.7925756573677063,-312.04196595,-299.43306549,23.12804598,-30.01526892,-829.8638809500001,-1708.24826718,82.34592171,-78.54691065,70.37037037037037,set #1
1970-01-01 00:00:20.727861247,3.450990676879883,-0.012711900286376476,0.7902441620826721,-155.46267906,-216.45095394,84.50866047000001,-39.17259138,-1858.3859708700002,-1845.2535379199999,105.34672512,-29.82832242,70.61728395061728,set #1
1970-01-01 00:00:20.737374863,3.4502875804901123,-0.018473448231816292,0.7879574298858643,-135.62367546000002,-177.01312005,24.51927309,-102.37158048,-1475.76776919,-1837.43897493,46.6082058,-39.57730608,70.86419753086419,set #1
1970-01-01 00:00:20.757449469,3.449580669403076,-0.024257048964500427,0.7856962084770203,-202.10711196,-386.14148508,-31.403283599999998,-167.21974815000002,-1636.0870749599999,-2320.94705037,-152.35726116,-186.65441418,71.11111111111111,set #1
1970-01-01 00:00:20.757458529,3.448871612548828,-0.030103402212262154,0.783575713634491,-201.95164236,-386.09908428,-31.2619476,-167.09607915,-1633.45822536,-2320.97178417,-152.62579956000002,-186.64734738,71.35802469135803,set #1
1970-01-01 00:00:20.767140946,3.4481332302093506,-0.035980429500341415,0.7815898656845093,-161.22447198,-359.27105603999996,-47.307577980000005,-181.49003105999998,-1866.5434437000001,-2436.52257732,-113.83024848,-137.72860296000002,71.60493827160494,set #1
1970-01-01 00:00:20.777323565,3.447270154953003,-0.04188801348209381,0.7796071171760559,-183.44904825,-381.50071049999997,-72.6888123,-187.8540456,-679.4184013500001,-3402.5704401,-264.91380435,-151.04546925000002,71.85185185185185,set #1
1970-01-01 00:00:20.787570319,3.4464173316955566,-0.04778478294610977,0.7777116298675537,-150.80834808,-314.17258664999997,-0.94454646,-107.11909845000001,-429.51516777,-3890.27136615,-322.32558812999997,-147.55998894,72.09876543209876,set #1
1970-01-01 00:00:20.797623715,3.445585012435913,-0.05375945568084717,0.7759035229682922,-165.1810368,-286.05283395,7.858133400000001,-87.07665915,1043.37214215,-4209.2170497,-192.76465455,-252.1470276,72.34567901234567,set #1
1970-01-01 00:00:20.807622275,3.4447317123413086,-0.05971875414252281,0.7741920351982117,-203.6642595,-328.682367,-111.81021150000001,-192.4344825,-1240.5981705,-2892.47527725,-461.93151224999997,-304.98016575,72.5925925925926,set #1
1970-01-01 00:00:20.817524514,3.4439141750335693,-0.06567934900522232,0.7725141048431396,-137.83433976,-255.53604414,-48.7348368,-87.58928412,-589.36943988,-2206.13801928,-975.0403876199999,-47.792642820000005,72.8395061728395,set #1
1970-01-01 00:00:20.827312789,3.443112373352051,-0.07159815728664398,0.7708528637886047,-105.91413846,-234.87885251999998,-84.95239779,-52.64670177,-251.98479930000002,-1545.59823678,-843.50600451,-572.7961511999999,73.08641975308642,set #1
1970-01-01 00:00:20.837271294,3.4422826766967773,-0.0774264708161354,0.7692966461181641,41.19347466,-118.51336223999999,47.46365754,-41.493872939999996,-1078.60952316,-1248.79724736,-252.13140342000003,-352.50961122,73.33333333333333,set #1
1970-01-01 00:00:20.847282252,3.44144868850708,-0.08343121409416199,0.767787516117096,-2.76766152,-104.43827784,41.9722602,-28.19967696,-1594.26226128,-682.73266152,-332.49375744,-71.80115436000001,73.58024691358024,set #1
1970-01-01 00:00:20.857885680,3.4405977725982666,-0.08942346274852753,0.766304612159729,-46.478515200000004,-83.3551056,25.5679944,-6.1341696,1187.8068072,-1052.0184168,-627.341052,175.8796728,73.82716049382715,set #1
1970-01-01 00:00:20.867243848,3.4397687911987305,-0.09537874907255173,0.7648791074752808,-116.36788487999999,-57.205237440000005,-106.25580576,-80.69248200000001,5147.33085672,489.54030216,-662.02020144,-196.51027344,74.07407407407408,set #1
1970-01-01 00:00:20.877206883,3.438805103302002,-0.10135439783334732,0.7635273337364197,-177.32210925,38.63669043,-62.58867225,10.90611834,1055.0207877300002,694.5907663500001,-647.02388166,42.34863126,74.32098765432099,set #1
1970-01-01 00:00:20.887257657,3.4376888275146484,-0.10731911659240723,0.7622691988945007,-156.89735802,75.32479773,-35.66111016,29.78229345,1814.99743971,415.44765054,-384.24660495,27.56741403,74.5679012345679,set #1
1970-01-01 00:00:20.897111735,3.4364013671875,-0.11330531537532806,0.7610621452331543,-115.4392356,164.32587404999998,-36.90733605,128.2021533,662.0064964500001,389.91361109999997,-261.05145885,-39.9650355,74.81481481481481,set #1
1970-01-01 00:00:20.907176337,3.434976816177368,-0.11915695667266846,0.7599211931228638,-130.3940001,178.40148573,-35.35245714,189.00202854,1769.31017094,235.37365721999998,-306.87322887,-10.87474284,75.06172839506172,set #1
1970-01-01 00:00:20.917353472,3.4334983825683594,-0.1249404102563858,0.7589342594146729,-81.55008576,274.70137344,22.718304960000005,249.28068671999998,1149.60869088,274.18109472000003,-184.51903392,3.4168243200000017,75.30864197530863,set #1
1970-01-01 00:00:20.927292905,3.4319634437561035,-0.1305876225233078,0.7580960392951965,-117.54798315,249.5009088,-90.16497165000001,181.04656245,814.6516774500001,426.65196015,-347.5730115,106.6481832,75.55555555555556,set #1
1970-01-01 00:00:20.937962613,3.430408000946045,-0.13622310757637024,0.7572834491729736,1.52715303,429.06184932,-43.17335256,287.31703767000005,1399.4114897099998,498.38362743,-209.20567863,-36.44288934,75.80246913580247,set #1
1970-01-01 00:00:20.947770199,3.4288365840911865,-0.1417253315448761,0.7565047740936279,-14.91453132,501.63453132,-45.19376277,332.51039094000004,1319.46350289,467.79803420999997,-89.33762994,70.19794314,76.04938271604938,set #1
1970-01-01 00:00:20.957624278,3.4273293018341064,-0.14712780714035034,0.7558308839797974,-87.11318928,508.44725802000005,-86.86183662,320.70280554,1019.69329488,567.1659474,-158.48093664,-15.8029209,76.29629629629629,set #1
1970-01-01 00:00:20.967324576,3.425997257232666,-0.1524338722229004,0.7552769184112549,-116.32278528,519.63732288,-170.88147648,300.4371552,1098.1282665600002,656.0523715200001,-138.28308,-27.5528448,76.5432098765432,set #1
1970-01-01 00:00:20.977666936,3.4245193004608154,-0.15747055411338806,0.7547991871833801,-207.87724776,510.44016816000004,-338.59644936,289.96720584,1123.3946848799999,751.8363028800001,-8.41890816,15.27542016,76.79012345679011,set #1
1970-01-01 00:00:20.987525305,3.4230024814605713,-0.16236425936222076,0.7542504072189331,-101.91591735,635.5172479500001,-120.3252219,424.5047781,867.4444155000001,676.2086292,171.2692137,-34.1123991,77.03703703703704,set #1
1970-01-01 00:00:20.996997199,3.421570301055908,-0.16758877038955688,0.7538194060325623,-121.85422782,671.87496207,-9.96247824,434.07,578.56990737,569.07991296,390.4773912,-25.107489420000004,77.28395061728395,set #1
1970-01-01 00:00:21.007376513,3.420837640762329,-0.17246317863464355,0.7537456750869751,107.26697358,752.32652196,-8.7395958,470.07559755,381.98516343,366.42011601,631.13048154,-136.60812126,77.53086419753086,set #1
1970-01-01 00:00:21.017152867,3.4200541973114014,-0.17729318141937256,0.7536043524742126,219.74259099,791.71614561,14.365417560000001,509.64305496000003,126.77853318000001,161.51340114,790.3562027400001,-199.67007138,77.77777777777777,set #1
1970-01-01 00:00:21.027106843,3.4193785190582275,-0.18189197778701782,0.7534435391426086,288.66999369,766.89660567,23.671788659999997,566.63348898,185.70647316,53.690082030000006,731.29330599,-151.03134696,78.02469135802468,set #1
1970-01-01 00:00:21.037411055,3.4188268184661865,-0.18623147904872894,0.7533323764801025,166.6030977,-148.15491600000001,-2.5687038000000006,558.13037865,160.65669165,-37.321818300000004,589.68492375,-200.1465999,78.2716049382716,set #1
1970-01-01 00:00:21.047262273,3.4183366298675537,-0.19039253890514374,0.7532757520675659,92.88255483,-291.82779288,-11.16233937,566.7370105800001,201.718647,-12.002792880000001,400.31886999,-140.01406653,78.51851851851852,set #1
1970-01-01 00:00:21.057242236,3.4178617000579834,-0.19436557590961456,0.7531947493553162,-14.090870039999999,-313.44857232,-5.582330519999999,566.70875664,303.2128866,174.34211028,263.9827632,18.481394880000003,78.76543209876543,set #1
1970-01-01 00:00:21.067828974,3.4174506664276123,-0.19811372458934784,0.7531042695045471,13.69080336,-179.33879496,-21.870997199999998,543.08010042,251.30320644,335.1229986,44.6475315,96.95030826,79.01234567901234,set #1
1970-01-01 00:00:21.077506146,3.417008876800537,-0.20176976919174194,0.7530251145362854,-56.898404160000005,-236.93458776,-5.356083720000001,551.9778856800001,87.51594774,567.2318784600001,82.1189694,53.191855079999996,79.25925925925925,set #1
1970-01-01 00:00:21.087235055,3.416635274887085,-0.20524942874908447,0.7530695796012878,-77.7382281,-211.1531994,19.7268006,547.73010045,-2336.8544472,168.7723596,0.26755365,7.731083100000001,79.50617283950616,set #1
1970-01-01 00:00:21.097798667,3.4160730838775635,-0.20864929258823395,0.7530849575996399,-91.27976481,-210.36444039,51.42124494,504.71615571,376.50954471,30.642514109999993,-1.4471492099999992,-99.62886453,79.75308641975309,set #1
1970-01-01 00:00:21.107846341,3.415468692779541,-0.21186284720897675,0.7530888319015503,-84.85923342000001,-191.21127714,183.65291997,528.84857688,71.58336197999998,753.7567880700001,281.3944887,-11.08171545,80.0,set #1
1970-01-01 00:00:21.117676100,3.4148621559143066,-0.21491599082946777,0.7531343102455139,-32.198322,-146.627754,259.941123,583.403184,-4558.393632,892.527207,619.544445,166.693137,80.24691358024691,set #1
1970-01-01 00:00:21.127303443,3.414273500442505,-0.2178543508052826,0.7532725930213928,-40.151260889999996,-199.4312892,31.21483014,394.34791812000003,3024.07271127,1537.22137413,215.43722343000002,-301.88184234,80.49382716049382,set #1
1970-01-01 00:00:21.137366376,3.413623094558716,-0.22054006159305573,0.7534166574478149,-56.79541296,-213.64097976,38.263761120000005,400.57546152000003,2068.87292664,1422.63942912,371.45319431999997,-3.0258259200000004,80.74074074074073,set #1
1970-01-01 00:00:21.147112450,3.412902355194092,-0.22302573919296265,0.7534722685813904,-33.7107225,-143.06342700000002,71.136624,396.40132350000005,71.041932,1209.040716,455.824629,-103.0022955,80.98765432098764,set #1
1970-01-01 00:00:21.157138667,3.412209987640381,-0.2253105193376541,0.7535581588745117,-136.46724039,-164.90082999,-22.00170492,312.47528208,2598.27555273,1407.20007363,114.73072767000001,-164.20611207,81.23456790123457,set #1
1970-01-01 00:00:21.167670092,3.4114391803741455,-0.22739924490451813,0.7536648511886597,-117.45496152,-134.54820600000002,-54.36049632,239.34156480000001,2713.73938992,1429.07263356,12.07797708,-158.34580164000002,81.48148148148148,set #1
1970-01-01 00:00:21.177177748,3.410585403442383,-0.22941546142101288,0.7537230849266052,-110.09271312,-126.32110451999999,-28.665522600000003,240.29635656,1011.5930837999999,1321.10701632,33.83265756,-54.718776840000004,81.72839506172839,set #1
1970-01-01 00:00:21.186987719,3.4097771644592285,-0.23115769028663635,0.753749668598175,-115.49610189,-136.42336656,-36.25837761,187.79662239,2259.99121803,1356.29001105,-41.21751387,-156.90861576,81.9753086419753,set #1
1970-01-01 00:00:21.197028002,3.409026622772217,-0.23271912336349487,0.7537792921066284,-85.60185192,-122.17605972,4.8984156,162.48025716,-185.21585862,1062.3442596,-53.84026752,-165.25236624,82.22222222222221,set #1
1970-01-01 00:00:21.207271657,3.408388376235962,-0.2341911643743515,0.753890872001648,-52.307559330000004,-104.92689246,-3.56526885,100.59227997,-3474.81282954,933.99325773,48.26028987,-95.2643016,82.46913580246913,set #1
1970-01-01 00:00:21.217836461,3.4078354835510254,-0.235492542386055,0.7539814114570618,-63.68292294,-112.31425218,-90.6546147,0.8950113899999996,653.10514113,1082.11563837,-173.0340105,-297.96157092,82.71604938271605,set #1
1970-01-01 00:00:21.227323136,3.407412528991699,-0.23667259514331818,0.7540203928947449,-183.14972832,-181.81530432,-213.67077888,-86.73249312,1975.2903456000001,1279.69887552,0.9377097599999997,-11.40882912,82.96296296296296,set #1
1970-01-01 00:00:21.237362942,3.407068967819214,-0.2378038913011551,0.7540591955184937,-198.3803679,-155.12203122,-308.56320066,-182.11212708,1816.42450158,1331.6609576399999,-52.54403232,-188.98368449999998,83.20987654320987,set #1
1970-01-01 00:00:21.248259864,3.4067344665527344,-0.23888537287712097,0.754103422164917,-205.19120544,-142.73098008,-299.62241088,-235.73696016,2003.9707022399998,1358.30447064,71.74222224,4.163181359999999,83.45679012345678,set #1
1970-01-01 00:00:21.257219157,3.4065351486206055,-0.24000433087348938,0.7541302442550659,-156.97560021,-100.86685517999999,-101.81779764,-192.01164684,2230.6909326,1330.19630952,49.35531744,-77.00976192,83.7037037037037,set #1
1970-01-01 00:00:21.267494044,3.406374216079712,-0.24097386002540588,0.7540678977966309,-121.44318888,-115.17066912,-93.87862224,-197.12397588,1378.45976424,1273.10622036,138.75649632,56.865787680000004,83.9506172839506,set #1
1970-01-01 00:00:21.277690253,3.4063618183135986,-0.24183684587478638,0.7540302276611328,-46.54121862,-94.47686118,-24.22477473,-243.23554281,1677.4525037399999,1188.71927265,-72.28249626,-205.28291355,84.19753086419753,set #1
1970-01-01 00:00:21.288469634,3.4063663482666016,-0.24261830747127533,0.7540297508239746,-51.31420163999999,-118.56632658,-31.248991800000002,-286.14481428,49.54443078,1078.99583454,139.70127834000002,47.56020984,84.44444444444444,set #1
1970-01-01 00:00:21.297219119,3.406313896179199,-0.24321198463439941,0.754004716873169,-5.471512799999999,-92.48968716,3.11371281,-268.2282564,-500.82535386,1020.9511026,58.81755906,-215.70409731,84.69135802469135,set #1
1970-01-01 00:00:21.307292065,3.406320571899414,-0.24371248483657837,0.7539178729057312,21.594851849999998,-60.62952675,5.0006502,-274.64109465,548.6127367500001,1021.6508601,126.75260910000002,6.248761349999999,84.93827160493827,set #1
1970-01-01 00:00:21.317273698,3.40644907951355,-0.24397239089012146,0.7538571357727051,51.52296006,-89.02491546,-10.528173240000001,-288.94703993999997,476.20746264,1001.23674222,310.72092012,186.10992894,85.18518518518518,set #1
1970-01-01 00:00:21.327352366,3.4065093994140625,-0.24402092397212982,0.7538132071495056,31.38737316,-140.71396794,-52.51417782,-324.94221863999996,626.12875806,892.0321137000001,-29.881137,-290.96066766,85.43209876543209,set #1
1970-01-01 00:00:21.337240777,3.406383752822876,-0.243829146027565,0.7536743879318237,21.01116966,-104.03418792000001,-31.178418179999998,-298.37839395000003,212.13084243,843.5192606100001,208.92604239,2.89698786,85.67901234567901,set #1
1970-01-01 00:00:21.347197852,3.4063494205474854,-0.2435186505317688,0.7535174489021301,21.88011852,-75.29568852,26.18203068,-250.69404828,283.0455264,805.4068729200001,304.43809656,144.41485968,85.92592592592592,set #1
1970-01-01 00:00:21.357435069,3.4063756465911865,-0.24298204481601715,0.7533681392669678,30.837892019999998,-81.24404652,-16.72424754,-337.6411545,257.80749423000003,689.2591843800001,-48.00021681,-192.73829406,86.17283950617283,set #1
1970-01-01 00:00:21.367131552,3.40644907951355,-0.24229265749454498,0.753309965133667,77.39475744,-41.3911056,56.775863040000004,-243.51391584,193.58449344,648.36477888,156.61406592,167.11280352,86.41975308641975,set #1
1970-01-01 00:00:21.377310118,3.4063820838928223,-0.24154111742973328,0.7532473206520081,62.602696259999995,-48.55473558,10.30553706,-282.35743458,108.23756268,563.04648582,88.39675572,73.61108508,86.66666666666666,set #1
1970-01-01 00:00:21.387655339,3.406390905380249,-0.24072720110416412,0.7531506419181824,27.18075204,-72.14619945,16.29291105,-295.58404043999997,68.41472508,464.89136928,-36.21321834,-73.6267116,86.91358024691357,set #1
1970-01-01 00:00:21.397250971,3.4064719676971436,-0.23990373313426971,0.7530895471572876,28.96090821,-66.60348201000001,-3.2292393899999996,-310.8413607,136.42029843,429.84531135,49.551206640000004,23.527416510000002,87.1604938271605,set #1
1970-01-01 00:00:21.407395920,3.4066245555877686,-0.2390943169593811,0.7531104683876038,31.1426856,-60.5901192,-44.819798399999996,-314.2110816,188.883396,432.9246792,-5.123258400000001,-60.267667200000005,87.4074074074074,set #1
1970-01-01 00:00:21.417257867,3.406773090362549,-0.23840653896331787,0.7531548142433167,36.59727708,-54.33783381000001,-52.99363056,-316.07931186,292.68989139,379.91522634,-64.60158666,-113.09147577,87.65432098765432,set #1
1970-01-01 00:00:21.427142462,3.4070417881011963,-0.23772764205932617,0.7531998753547668,47.34373566,-24.18862992,15.29387964,-243.2478009,216.10153656,387.66215748,205.45394376000002,201.07251294,87.90123456790123,set #1
1970-01-01 00:00:21.437449059,3.4073240756988525,-0.23709321022033691,0.753248393535614,52.120931070000005,-29.026275719999997,24.765,-266.27585244000005,179.89515726000002,298.11741843000004,60.74496987,-16.88489712,88.14814814814814,set #1
1970-01-01 00:00:21.447281680,3.407667875289917,-0.23650388419628143,0.7533488273620605,55.6021128,-34.1008512,15.4148904,-260.6253312,253.5687648,264.0139008,102.05051999999999,120.7871808,88.39506172839506,set #1
1970-01-01 00:00:21.457476220,3.4079842567443848,-0.23593731224536896,0.7534244060516357,38.6839518,-16.510806,90.368226,-189.9856452,77.3312904,259.5174192,191.7128226,140.86371,88.64197530864197,set #1
1970-01-01 00:00:21.467714152,3.408324956893921,-0.23529855906963348,0.7534456253051758,-50.6981748,-58.359462719999996,-31.20036504,-291.11032392,37.08927768,231.24349872,118.48414656,49.503133680000005,88.88888888888889,set #1
1970-01-01 00:00:21.477320275,3.408637762069702,-0.23474490642547607,0.7534242272377014,27.084232500000002,2.957301750000001,50.159898749999996,-220.131678,-23.118693,263.81342324999997,173.3622345,171.201147,89.1358024691358,set #1
1970-01-01 00:00:21.487186751,3.4090492725372314,-0.23417416214942932,0.7534794211387634,14.70263652,-32.440366139999995,-61.96300266,-352.35084885000003,-240.70491003,252.00114849,-130.62844859999998,-72.46444062,89.38271604938271,set #1
1970-01-01 00:00:21.497188172,3.409329414367676,-0.2335856407880783,0.7534735202789307,64.84693644000001,-36.257418599999994,-11.74822428,-252.8562894,-21.98467752,352.48871112,77.51564652,159.80145167999999,89.62962962962962,set #1
1970-01-01 00:00:21.507852873,3.409661293029785,-0.23287081718444824,0.7534186244010925,66.55463958,-1.3631919600000009,36.34310433,-202.55656512,-31.507047000000004,363.35539227000004,89.61533451,123.77349660000002,89.87654320987654,set #1
1970-01-01 00:00:21.517161927,3.4099478721618652,-0.23205530643463135,0.7533429265022278,2.49618213,-64.07181885,-57.78530355,-301.87109082,23.5484847,357.08596989,20.535668790000003,-3.80142399,90.12345679012346,set #1
1970-01-01 00:00:21.527887425,3.4101924896240234,-0.23123033344745636,0.7533090710639954,26.8838505,-34.24409625,15.270489,-215.85635175000002,20.539457249999998,345.73968,119.98945725,131.77726575,90.37037037037037,set #1
1970-01-01 00:00:21.537704549,3.410320281982422,-0.23039746284484863,0.7532609701156616,42.580933980000005,-30.58835793,25.72235016,-194.3262945,25.58956569,335.34683754,167.93054304,165.48421812,90.61728395061728,set #1
1970-01-01 00:00:21.547292552,3.410465955734253,-0.22945180535316467,0.7531737089157104,87.5342832,-8.68576488,-13.490240400000001,-219.44966784,47.23771416,283.625472,47.4866652,61.62209352,90.86419753086419,set #1
1970-01-01 00:00:21.557616315,3.410533905029297,-0.22846299409866333,0.7530868053436279,76.0512051,-27.12617505,6.36253995,-201.03084885,48.9220173,287.61084885,54.07391145,97.0275033,91.1111111111111,set #1
1970-01-01 00:00:21.568055472,3.41056227684021,-0.22751222550868988,0.7530595660209656,76.00849151999999,-37.93641072,-13.064413440000001,-212.65699728,-80.34117312000001,246.26453904,-5.35300272,25.50143856,91.35802469135803,set #1
1970-01-01 00:00:21.577168069,3.410536766052246,-0.2265709936618805,0.753037691116333,124.07570253,2.48257893,40.28796798,-148.58671854000002,-89.65906404,251.20257669,-7.81804803,12.79460871,91.60493827160494,set #1
1970-01-01 00:00:21.588121495,3.4104533195495605,-0.22557193040847778,0.7529538869857788,82.4941221,-107.1843864,-37.396257600000006,-206.4995322,-154.1447661,194.50795259999998,-3.6594441,16.6150881,91.85185185185185,set #1
1970-01-01 00:00:21.597407660,3.4103775024414062,-0.22453975677490234,0.752865731716156,64.48177319999999,-13.2186678,11.879244,-154.4373402,-207.0777228,180.8378442,42.5732268,45.390189,92.09876543209876,set #1
1970-01-01 00:00:21.607706866,3.4103193283081055,-0.22351716458797455,0.7528777718544006,143.29204656,25.149169500000003,55.96534554,-94.3398339,-143.74004970000001,178.29145854,82.2381729,75.60782736,92.34567901234567,set #1
1970-01-01 00:00:21.617281995,3.4101366996765137,-0.22256198525428772,0.7528773546218872,53.45581215,-36.06949515,-15.9383757,-152.06868300000002,-50.25287085,120.98502195,-127.68695355,-116.7364926,92.59259259259258,set #1
1970-01-01 00:00:21.626945576,3.4099771976470947,-0.22167934477329254,0.752829372882843,84.73215504000001,-16.77397176,27.05721096,-91.26807144,-42.724986720000004,138.16078848,193.12285824,236.52432336,92.8395061728395,set #1
1970-01-01 00:00:21.637330851,3.409716844558716,-0.22092752158641815,0.7527530193328857,57.950683440000006,-25.77402048,21.927129900000004,-117.08546694,-40.626799590000005,74.19003423000001,68.89599093000001,81.46809801,93.08641975308642,set #1
1970-01-01 00:00:21.647290787,3.409609794616699,-0.220232293009758,0.7527680397033691,86.24239806,-7.3396365900000005,78.42331185,-54.19053666,2.5155366600000004,58.019796119999995,104.67495246,145.67622966000002,93.33333333333333,set #1
1970-01-01 00:00:21.657013974,3.4094626903533936,-0.21959379315376282,0.752780556678772,57.17979384,-28.68440952,46.903547339999996,-39.56320056,-18.04660728,20.09164482,103.00359888,81.85640112,93.58024691358024,set #1
1970-01-01 00:00:21.668226323,3.409316301345825,-0.21898481249809265,0.7527100443840027,56.85580836,-14.594308949999999,62.02629732,-47.55745761,-162.80870268,-34.29772476,53.62663644,50.94198837,93.82716049382715,set #1
1970-01-01 00:00:21.677409253,3.409213066101074,-0.21840900182724,0.7526314854621887,16.32726069,-56.81578266,40.861173990000005,-86.49256473000001,-172.64369655000002,-79.36639074,-45.32534916,-9.336393690000001,94.07407407407406,set #1
1970-01-01 00:00:21.687382064,3.409334421157837,-0.21755781769752502,0.7525086402893066,25.8248016,-39.066119040000004,49.248282720000006,-81.73614384000001,-140.02629264,-117.38425296,-33.3799752,33.50694048,94.32098765432099,set #1
1970-01-01 00:00:21.697266183,3.4091508388519287,-0.21721026301383972,0.7524502277374268,19.10717055,-58.6318863,-36.81430233,-175.80708015,-204.04312656,-165.93085275,-144.97335918000002,-136.02164082,94.5679012345679,set #1
1970-01-01 00:00:21.708268485,3.4090373516082764,-0.2168271690607071,0.7523697018623352,74.46423855,5.101911749999998,11.1005817,-152.77387905,-297.32110785,-161.40610785,9.60818625,133.2351111,94.81481481481481,set #1
1970-01-01 00:00:21.717378220,3.4090828895568848,-0.21617665886878967,0.7521871328353882,169.7806032,96.83051040000001,337.738167,225.17064960000002,-311.03276100000005,-172.6101624,119.6902668,187.0748724,95.06172839506172,set #1
1970-01-01 00:00:21.727938494,3.4089338779449463,-0.21564354002475739,0.7520555257797241,142.36860768,37.74955704,188.71822788,104.43873414000001,-278.98151892,-258.44012688000004,26.335949640000003,79.7117724,95.30864197530863,set #1
1970-01-01 00:00:21.737550578,3.408769369125366,-0.21512800455093384,0.7519369721412659,62.6553057,-12.2337111,82.1485431,-1.24326384,-1.8029052599999997,-227.24544726,-4.7183214,41.12809584,95.55555555555556,set #1
1970-01-01 00:00:21.747543654,3.408518075942993,-0.21460945904254913,0.7517920732498169,-62.158653959999995,-103.59765156,13.374446279999999,-71.57130552,7.66364196,-133.91692002000002,-72.17333058,-34.06793442,95.80246913580247,set #1
1970-01-01 00:00:21.757283053,3.4082627296447754,-0.21406732499599457,0.751610279083252,62.16352467,-0.9166298699999977,50.66109906,-41.89311672,15.646413899999999,75.24562968000001,50.24531772,98.31703206,96.04938271604938,set #1
1970-01-01 00:00:21.767223677,3.408031463623047,-0.2135513722896576,0.7514992356300354,47.19564057,-80.57053017,87.64755402,-27.002233440000005,282.50329614000003,333.32148837,67.93702149,168.37744716,96.29629629629629,set #1
1970-01-01 00:00:21.777305207,3.407738208770752,-0.21312716603279114,0.7514141798019409,70.2528489,-25.48725738,63.59238795,-54.116536499999995,406.60228167,582.95127657,72.52458642,160.65687963,96.5432098765432,set #1
1970-01-01 00:00:21.787433705,3.4073944091796875,-0.21275460720062256,0.7512645125389099,139.76232075000001,-13.55938935,114.6805374,25.102320750000004,37.9938273,815.6096091000001,210.4018566,175.6875081,96.79012345679011,set #1
1970-01-01 00:00:21.797106585,3.4070796966552734,-0.21245621144771576,0.7511469125747681,85.80238875,15.416526450000001,74.85366135000001,-16.2272253,844.5959457,902.5387761000001,121.4170932,215.51005905000002,97.03703703703704,set #1
1970-01-01 00:00:21.807530007,3.4067914485931396,-0.21220605075359344,0.7510964274406433,-178.48337715000002,-320.51767644,-178.18332558,-293.08894641,680.06991507,715.0645905,-108.26010819,-86.75948736000001,97.28395061728395,set #1
1970-01-01 00:00:21.817418179,3.406445264816284,-0.2120102196931839,0.7510420083999634,72.85574439,4.563217619999996,18.45074439,-93.87279447,388.51845942,732.1328082900001,73.15684974,137.92162176000002,97.53086419753086,set #1
1970-01-01 00:00:21.827385506,3.4059641361236572,-0.21185319125652313,0.7509276270866394,-51.66312606,-207.03230262,-37.647375479999994,-180.51681804,-231.54159443999998,701.3047899000001,-27.407367,23.93867502,97.77777777777777,set #1
1970-01-01 00:00:21.837783417,3.405552864074707,-0.21158865094184875,0.7507970333099365,-43.623555689999996,-77.29290309,-2.6590547099999995,-165.8793474,341.61607506,931.18340211,-33.75910746,58.230719820000004,98.02469135802468,set #1
1970-01-01 00:00:21.847774348,3.4051907062530518,-0.21126173436641693,0.7507138848304749,113.1,47.385000000000005,224.01888444,66.22216691999999,-1148.4338658,1072.04658912,178.005321,306.37229532,98.2716049382716,set #1
1970-01-01 00:00:21.857488236,3.404797077178955,-0.21092826128005981,0.750610888004303,-8.146332480000005,-27.043004040000007,165.46100532,27.591417360000005,-723.60601404,1236.89422272,59.151607320000004,187.31015784,98.51851851851852,set #1
1970-01-01 00:00:21.867477498,3.4043822288513184,-0.2105197012424469,0.7504676580429077,-287.56059228000004,-395.55355632000004,-59.85904547999999,-150.73097832,-1172.2718826,1305.8253093600001,-230.90617134,-25.042691700000006,98.76543209876543,set #1
1970-01-01 00:00:21.877244553,3.4039769172668457,-0.2100113481283188,0.7502883672714233,283.30701282,268.39925775,161.34338103000002,128.11734351,-983.27805849,1209.02974062,-80.7049464,284.14620741000005,99.01234567901234,set #1
1970-01-01 00:00:21.887196860,3.403987407684326,-0.20926593244075775,0.750285267829895,259.0909464,372.6977592,201.54805320000003,191.4848286,-128.55488880000001,788.7914814000001,-295.29027840000003,246.3212778,99.25925925925925,set #1
1970-01-01 00:00:21.897435031,3.4036853313446045,-0.20878514647483826,0.7501786947250366,-175.09077651,-95.39759268,28.06701144,65.41559115000001,404.02485279,347.92621968000003,-466.35284592,14.960057969999998,99.50617283950616,set #1
1970-01-01 00:00:21.908164344,3.4035043716430664,-0.2081930786371231,0.7500508427619934,122.65069127999999,110.96268768,3.774064320000001,60.422359920000005,-797.1527772,83.71206792,-602.0578605600001,-260.34289632,99.75308641975307,set #1
1970-01-01 00:00:21.917193017,3.4034836292266846,-0.20744222402572632,0.7499424815177917,136.79415749999998,124.50709713,119.98177113,200.66166783,-269.5085055,-66.01327824,-174.02505393,3.619946070000001,100.0,set #1
1970-01-01 00:00:21.917193017,3.4034836292266846,-0.20744222402572632,0.7499424815177917,136.79415749999998,124.50709713,119.98177113,200.66166783,-269.5085055,-66.01327824,-174.02505393,3.619946070000001,0.0,set #2
1970-01-01 00:00:21.927079758,3.4038078784942627,-0.20625774562358856,0.749943196773529,104.45328582,153.58127226000002,207.280281,334.01354844,-617.49614238,-312.84564246,-20.89353006,-4.104438,0.28653295128939826,set #2
1970-01-01 00:00:21.937556348,3.4041285514831543,-0.2051236480474472,0.7500969767570496,-278.49588312000003,-256.4653416,48.138013560000005,149.39252796,-803.53824564,-491.65564032000003,-233.66369676,-172.58474532,0.5730659025787965,set #2
1970-01-01 00:00:21.947233281,3.4043259620666504,-0.20397178828716278,0.7501907348632812,-110.98830561,-140.53793832,33.77534706,128.57234714999998,32.34575526,-637.7646120300001,-202.85999955,-107.94746898,0.8595988538681948,set #2
1970-01-01 00:00:21.957882962,3.4046247005462646,-0.20249712467193604,0.7502816319465637,-53.84049684,-220.03605702,16.702325639999998,236.70797045999998,-928.0062792000001,-682.70742072,-282.73880544,-150.59525364,1.146131805157593,set #2
1970-01-01 00:00:21.966975054,3.405282735824585,-0.20062728226184845,0.7505530714988708,312.69627168,190.04085048,179.99472894000002,422.48674728000003,-1198.9276400400001,-717.76623438,-292.95683898,-92.76078396000001,1.4326647564469912,set #2
1970-01-01 00:00:21.977360806,3.405891180038452,-0.1985337734222412,0.7508398294448853,56.69142336,77.48712972000001,157.26786192,453.36214872000005,-306.25713846,-707.0521411200001,-345.39356904,-76.0949943,1.7191977077363896,set #2
1970-01-01 00:00:21.987341962,3.4063549041748047,-0.1961914598941803,0.7510373592376709,-38.01915078,-27.97585986,-87.71546706,230.61433122,-472.63114626,-636.70210188,-476.79785556,-293.29276002,2.005730659025788,set #2
1970-01-01 00:00:21.997093043,3.4065988063812256,-0.19356407225131989,0.7511231899261475,159.94136067,162.53536806,188.85220692000001,550.35915519,-362.10793944,-626.55805173,-69.92327199,70.25084625000001,2.292263610315186,set #2
1970-01-01 00:00:22.007423958,3.4069182872772217,-0.19081062078475952,0.7512540817260742,-165.00201354,-244.59855654,-3.482328719999991,364.82434014,-275.73241956,-684.07706172,-326.38650798,-264.533724,2.5787965616045843,set #2
1970-01-01 00:00:22.017189822,3.4071741104125977,-0.18789686262607574,0.7513750195503235,230.69322354,133.02184428,7.73857188,373.73372478,-288.65735184,-748.09433322,-367.54790826,-316.95816204000005,2.8653295128939824,set #2
1970-01-01 00:00:22.027117572,3.407376766204834,-0.1847379058599472,0.7514786720275879,491.17272515999997,910.1466114,325.24791468,726.91464456,-610.1499518400001,-575.2640758800001,-99.31492895999999,24.44154024,3.151862464183381,set #2
1970-01-01 00:00:22.037762484,3.4075889587402344,-0.1812673658132553,0.7515891194343567,-231.90918036,260.74396296000003,23.0846538,309.99756684,780.9253140000001,-655.93980192,-423.77220288,-232.06348308,3.438395415472779,set #2
1970-01-01 00:00:22.047128043,3.407710313796997,-0.1777670830488205,0.7517276406288147,168.29696013,590.4767072100001,107.84905638000001,331.5237354,940.61631378,-770.1168969,-424.93841442,-168.35676078,3.7249283667621773,set #2
1970-01-01 00:00:22.057113490,3.407832145690918,-0.1741311252117157,0.7520123720169067,147.8476077,532.6711299,164.2668456,389.3757621,904.985328,-732.1832505000001,-231.6863055,-65.5667727,4.011461318051576,set #2
1970-01-01 00:00:22.067729077,3.4080493450164795,-0.1703338325023651,0.7523714900016785,230.37221649,461.1377901,291.37103268000004,530.91011454,226.81987887000003,-701.47524408,-152.32512204,58.02569565,4.297994269340974,set #2
1970-01-01 00:00:22.077696643,3.408287525177002,-0.16627812385559082,0.7527716159820557,105.26961081,403.15856022,119.53265844,438.25057848,29.009623110000007,-640.68394299,-254.73876012,-71.26292004000001,4.584527220630372,set #2
1970-01-01 00:00:22.087286315,3.4086577892303467,-0.16200503706932068,0.7533226013183594,91.63643385,426.73141095,111.6336234,398.65021755,179.36765535,-676.34989695,-22.49551785,92.70595035,4.871060171919771,set #2
1970-01-01 00:00:22.097323022,3.4089739322662354,-0.157628133893013,0.7539401054382324,-63.52591986,-53.96279928,61.53612972,368.07276558,497.93720340000004,-436.40129988,-113.8505355,-82.48302816,5.1575931232091685,set #2
1970-01-01 00:00:22.107460341,3.409316301345825,-0.15297985076904297,0.7546101808547974,23.243161890000003,242.35739073,91.4749485,298.23407016,488.27277563999996,-481.58480721,212.03062569,-102.90897201,5.444126074498567,set #2
1970-01-01 00:00:22.117474160,3.4097087383270264,-0.14792639017105103,0.7552918195724487,246.4835256,533.8253544,235.106508,423.5601552,495.42632879999996,-117.4489368,57.8167512,-82.0395576,5.730659025787965,set #2
1970-01-01 00:00:22.127373776,3.410092830657959,-0.14261576533317566,0.7560886740684509,122.41990176,123.61788816,240.39150096,399.90573792,803.2730846400001,371.46843552,49.25862240000001,-0.07446816000000211,6.017191977077363,set #2
1970-01-01 00:00:22.137402854,3.410489082336426,-0.13723766803741455,0.7569807171821594,-27.827418840000007,27.824210700000002,-17.869362419999995,132.83331593999998,133.63129650000002,798.8895283200001,-207.73129416,-281.73668406,6.303724928366762,set #2
1970-01-01 00:00:22.147131524,3.410933017730713,-0.13166549801826477,0.7579506039619446,30.454196760000002,-29.6041746,50.115407160000004,196.26363276,-1102.8723700799999,886.28721324,-102.57895596,-63.810594120000005,6.59025787965616,set #2
1970-01-01 00:00:22.157060466,3.411411762237549,-0.12584291398525238,0.7589960694313049,-81.41999424000001,-262.88516202,-76.91249904000001,38.34064962,-606.3185349,631.1696391,-283.45557552,-306.7031955,6.876790830945558,set #2
1970-01-01 00:00:22.166941247,3.411959171295166,-0.11987455189228058,0.7602052092552185,141.44140257,124.88884862999998,-44.54697858,155.72035947,-891.58863339,288.45129495000003,-41.34093560999999,-167.35816578,7.163323782234957,set #2
1970-01-01 00:00:22.177138648,3.412508487701416,-0.11367020756006241,0.7616050839424133,185.7680916,243.64389192,-169.752726,95.33101968,-225.68728728000002,118.31092728,-92.6259984,-266.9032704,7.449856733524355,set #2
1970-01-01 00:00:22.187484584,3.4128901958465576,-0.1072528138756752,0.7631072998046875,178.90801344,109.13510399999998,-86.36232072,96.56991552,-354.05434895999997,-299.46951528,-34.13782008,-124.9372644,7.736389684813753,set #2
1970-01-01 00:00:22.197097621,3.4131689071655273,-0.10049618035554886,0.7647430300712585,-147.81927810000002,-4.42469235,-79.71244865999999,67.60629213,118.71468843000001,-458.93817879,-115.06775631,-239.38497531000002,8.022922636103152,set #2
1970-01-01 00:00:22.207334599,3.4133260250091553,-0.09352051466703415,0.7665265798568726,118.52084829,-285.25603353,12.282869039999998,-37.17077793,-1596.55811172,-349.06711983,-85.14373959,-303.27682905,8.30945558739255,set #2
1970-01-01 00:00:22.217239461,3.413443088531494,-0.08618386834859848,0.7685873508453369,341.64675090000003,214.77775995000002,252.35709681,82.53608298,-2740.97026242,-129.35466843,64.11430818000001,-238.44213744,8.595988538681947,set #2
1970-01-01 00:00:22.227686724,3.413426160812378,-0.07851961255073547,0.7708306312561035,271.118913,-191.25067572,218.13385464,13.07803848,-1251.2982409200001,-185.57220864,197.24091192,-318.89111436,8.882521489971346,set #2
1970-01-01 00:00:22.237494549,3.413445472717285,-0.07063517719507217,0.7732300758361816,270.82002363000004,-115.59402621,129.32906181,-107.24149644,-2035.67070096,-392.07909741,-307.99157961000003,-441.08787411,9.169054441260744,set #2
1970-01-01 00:00:22.248243413,3.4133996963500977,-0.06250791251659393,0.7758083939552307,212.1331173,-152.38037139,300.66628293,-107.19593313,-4398.4269342,-756.43558848,-198.42558333,-200.49106584,9.455587392550143,set #2
1970-01-01 00:00:22.257860503,3.4133241176605225,-0.05420020595192909,0.7786171436309814,267.00094356,207.64773627,515.25583941,83.03684025,-4432.69077927,-1140.29878599,-153.9599958,191.80570031999997,9.742120343839542,set #2
1970-01-01 00:00:22.267698607,3.413120746612549,-0.04571457952260971,0.7815917134284973,98.14097046,-247.08994284,172.83189885000002,-270.85697613,-2938.73725587,-1241.31904806,-814.5285002400001,-1.078221300000001,10.028653295128938,set #2
1970-01-01 00:00:22.277185998,3.41292405128479,-0.03695356100797653,0.7848080992698669,365.75051994,7.148774099999999,175.0437741,-204.3170103,-1574.9565195,-951.5001568800001,-791.46383238,290.57199912,10.315186246418337,set #2
1970-01-01 00:00:22.287369332,3.4127907752990723,-0.028011079877614975,0.7883119583129883,325.44559944,290.35566924,355.68370968,-47.48482908,796.84768176,-627.74968464,-499.8029634,204.76350023999998,10.601719197707736,set #2
1970-01-01 00:00:22.297483048,3.412637233734131,-0.01896694302558899,0.7920325994491577,-2.835977039999996,-315.60295104,212.46346368000002,-317.37798144,2220.5315714400003,-525.51812664,-317.45993448,-48.4461432,10.888252148997134,set #2
1970-01-01 00:00:22.307573161,3.412513494491577,-0.009796304628252983,0.7959849238395691,238.82266395,-74.07666357000001,341.95874583,-248.99135235,905.14472763,-721.3336884,-128.80529454,-203.82354018,11.174785100286533,set #2
1970-01-01 00:00:22.317067465,3.4124250411987305,-0.0004919702187180519,0.8001608848571777,-168.5847852,-451.3621164,44.0613498,-605.6078067,1122.529356,-727.0172929500001,-27.20284515,-93.72198614999999,11.46131805157593,set #2
1970-01-01 00:00:22.327344260,3.412390947341919,0.00901736132800579,0.8046417832374573,-357.38018939999995,-1183.1737476,-356.81801220000006,-1132.838343,904.303998,-920.5310244000001,-394.1814162,-541.0484586,11.747851002865328,set #2
1970-01-01 00:00:22.337193808,3.41253399848938,0.01848975382745266,0.8093805909156799,113.82822672,-437.68634832,369.95945376000003,-151.64272656000003,1486.25521824,-1224.78340608,-148.7113368,47.663928,12.034383954154727,set #2
1970-01-01 00:00:22.347078404,3.41264009475708,0.028185006231069565,0.8144187927246094,672.25303548,673.5574248,608.78282088,200.25161676,2129.6260081200003,-1227.5751649200001,303.31945488,444.5898834,12.320916905444125,set #2
1970-01-01 00:00:22.357758841,3.4128289222717285,0.03791537880897522,0.8196377754211426,146.54977311,-111.80204724,131.47462185,-160.71888417,2816.63470998,-262.34796003,-189.84359823,94.79990052,12.607449856733524,set #2
1970-01-01 00:00:22.367567382,3.4131381511688232,0.047809258103370667,0.8251956701278687,-348.58517382,-906.94684314,-448.15904562,-550.0221908999999,4185.7888098,-1094.44360896,-485.19314142,-234.55554486000003,12.893982808022923,set #2
1970-01-01 00:00:22.377247653,3.41351318359375,0.05777561664581299,0.8310726284980774,487.19912319,47.91450105000001,-108.4649553,-160.05801591,2803.26232329,-1029.1321622399998,-215.94239745,-27.028622009999996,13.18051575931232,set #2
1970-01-01 00:00:22.387378058,3.4138848781585693,0.06786318123340607,0.8372451663017273,435.72570444,350.60252292,297.54240906,88.41162252000001,-1562.79722898,-747.7534428,317.58476958000006,443.56834391999996,13.467048710601718,set #2
1970-01-01 00:00:22.397085747,3.4142754077911377,0.07798918336629868,0.8436740636825562,202.0764798,-334.07868702,87.03688266,-305.71006128,-2121.23214537,-1076.05786314,66.64124376,108.6194655,13.753581661891117,set #2
1970-01-01 00:00:22.407602629,3.414595365524292,0.08822941780090332,0.8503998517990112,340.75750059,220.24355223,203.23180839,-271.58195142,-4032.9686330699997,-1497.74669577,382.29246900000004,163.94039103,14.040114613180515,set #2
1970-01-01 00:00:22.417154870,3.4147632122039795,0.09852694720029831,0.8574610352516174,-10.760049300000002,37.130558400000005,184.22968980000002,-360.4848234,-5131.7650683,-2347.2755202,553.3166847,304.8574308,14.326647564469914,set #2
1970-01-01 00:00:22.427223048,3.4148268699645996,0.10875974595546722,0.8647728562355042,123.93594408,321.27594408000004,169.28975232,-313.54767288000005,-3033.31851888,-2646.6298872,988.6514664,508.73177784,14.61318051575931,set #2
1970-01-01 00:00:22.437580666,3.4147441387176514,0.1191330999135971,0.872407078742981,-425.94543888,201.123117,-142.3914804,-628.51424922,-1002.56947596,-2429.0401582199997,510.23934546,288.21422603999997,14.89971346704871,set #2
1970-01-01 00:00:22.447229943,3.414560317993164,0.12946583330631256,0.8803603649139404,-43.19254173,425.93419986,-113.29414550999999,-495.12286746,54.76216902,-2624.52876543,290.80954383,314.81548878,15.186246418338108,set #2
1970-01-01 00:00:22.457548461,3.4143309593200684,0.13972064852714539,0.8886786103248596,368.83771197000004,946.5780168,70.02415212,-335.3130378,1791.32619471,-2599.71981789,534.30843024,352.88819202,15.472779369627506,set #2
1970-01-01 00:00:22.467447600,3.413958787918091,0.1498759537935257,0.8972781300544739,995.285772,1218.624108,621.1257,178.878492,1274.298636,-3205.714824,507.98358,772.599672,15.759312320916905,set #2
1970-01-01 00:00:22.477354607,3.4135231971740723,0.15989896655082703,0.9061506986618042,-170.30464893000004,161.78363565,-164.48749161000003,-663.4992534300001,1752.04753269,-3406.3165422,98.55974856,20.3138091,16.045845272206304,set #2
1970-01-01 00:00:22.487526974,3.413027286529541,0.16980984807014465,0.915301501750946,426.19023954,912.76783884,333.34374996,-189.25931076,47.8507419,-3368.6686098,296.18596956000005,400.65212616,16.332378223495702,set #2
1970-01-01 00:00:22.497307858,3.412587881088257,0.1795867681503296,0.9248498678207397,509.49928146,1015.68214878,572.89403886,-11.397334259999994,-672.6775848000001,-3133.08704358,39.15763332,741.34319064,16.6189111747851,set #2
1970-01-01 00:00:22.507193646,3.412121534347534,0.18915274739265442,0.9346612691879272,-384.91259586,-533.37249888,-68.48069748,-662.64687762,-21.67656582,-2982.0748175400004,-306.7963626,264.8288799,16.905444126074496,set #2
1970-01-01 00:00:22.517254672,3.411713123321533,0.1985168159008026,0.9446796774864197,-70.25008848,144.14664576,-196.53542064,-742.15999728,1054.36221072,-2499.76881024,-240.62907024,410.30372447999997,17.191977077363894,set #2
1970-01-01 00:00:22.527681431,3.4113526344299316,0.2077161967754364,0.9549517035484314,-436.36116654,-768.9139013399999,-81.16285359000001,-683.2235268300001,1725.74568114,-2587.8400169700003,-308.61391041,164.34845778,17.478510028653293,set #2
1970-01-01 00:00:22.537205062,3.411060094833374,0.21667757630348206,0.9654315710067749,-197.00116956,-250.10623794,158.58092952,-526.80660084,820.99028544,-2266.21888974,-261.41260782,441.16937124000003,17.76504297994269,set #2
1970-01-01 00:00:22.547620854,3.410653591156006,0.22548426687717438,0.9761252403259277,-166.413429,-617.6738334,3.615418560000002,-628.50893664,496.5327432,-2143.8447186000003,-167.59740738000002,439.12349831999995,18.05157593123209,set #2
1970-01-01 00:00:22.557207188,3.4101123809814453,0.234076127409935,0.9869224429130554,952.5857796,135.86022528,921.26166444,35.084780640000005,-328.49342448,-1651.1486986799998,-24.96163332,575.76741144,18.33810888252149,set #2
1970-01-01 00:00:22.566997609,3.4097161293029785,0.2423572540283203,0.9978313446044922,50.89631702999998,-484.88930295,413.84562063,-347.53135833,393.0089241,-1412.22241797,61.2960972,376.92732090000004,18.624641833810887,set #2
1970-01-01 00:00:22.577469668,3.409285545349121,0.25036418437957764,1.008865237236023,-203.50258343999994,-749.7727972800001,215.97468516,-406.94384951999996,-81.70849128,-801.446373,-172.33007220000002,532.45371972,18.911174785100286,set #2
1970-01-01 00:00:22.587474904,3.4085984230041504,0.258283793926239,1.0201407670974731,-607.68102408,-845.5659420000001,-297.69718368,-872.55194208,127.50363288,-819.46375368,-75.57490824,466.35640584,19.197707736389685,set #2
1970-01-01 00:00:22.597338042,3.407996654510498,0.2658200263977051,1.0313928127288818,317.98631436,-477.61804584,142.83671922000002,-371.00186214,538.42460802,-701.79398172,-165.77895984,84.13429518000001,19.484240687679083,set #2
1970-01-01 00:00:22.607673964,3.407177686691284,0.27302223443984985,1.0425471067428589,943.8840247200001,-362.91754356,73.66473192,-363.39674279999997,433.57403544,-979.5996490800001,-333.59269476000003,345.93899496,19.770773638968482,set #2
1970-01-01 00:00:22.617352566,3.406562328338623,0.28002268075942993,1.0540573596954346,884.49385596,257.31670302,131.64414899999997,-296.42585543999996,736.05789738,-906.69007104,-391.40294622,397.6496004,20.057306590257877,set #2
1970-01-01 00:00:22.627245269,3.405791759490967,0.2867645025253296,1.0656071901321411,611.00679276,286.89436191,-128.9734992,-437.13565272000005,543.6590363100001,-852.55924338,-465.14134641000004,371.15092053,20.343839541547275,set #2
1970-01-01 00:00:22.637213788,3.404876708984375,0.2930818200111389,1.0769219398498535,642.35824536,700.6499463600001,377.35596288,-260.58484764,1076.62365408,-311.78626596,-75.74852376,595.61444748,20.630372492836674,set #2
1970-01-01 00:00:22.647894463,3.4040348529815674,0.29928502440452576,1.0885157585144043,-1046.51254266,-727.32464844,-280.55970695999997,-896.91485013,880.2718107300001,536.67093831,-413.48970897000004,211.43325918,20.916905444126073,set #2
1970-01-01 00:00:22.657166562,3.403275489807129,0.3051905035972595,1.1000862121582031,-731.9627140800001,-555.8242661400001,-507.32895953999997,-987.88751178,1221.79965258,801.44412192,-555.3045927000001,76.04118288000001,21.20343839541547,set #2
1970-01-01 00:00:22.667147002,3.402329921722412,0.3107694685459137,1.1115435361862183,-78.8912709,1009.13782242,582.9771831,283.16261766,926.6969540399999,1445.85070266,-31.408199160000002,485.33086212,21.48997134670487,set #2
1970-01-01 00:00:22.677079281,3.401519298553467,0.31590306758880615,1.1228265762329102,-892.05990978,324.13490616,220.65303234,75.33224556,958.15705284,1860.80294283,-153.71648838000002,347.96943987000003,21.77650429799427,set #2
1970-01-01 00:00:22.687028250,3.4006872177124023,0.3209584653377533,1.134223222732544,-1388.5672125,-358.98905249999996,-607.94136,-845.9802,1085.1243975,2276.613885,-210.93501,254.29657500000002,22.063037249283667,set #2
1970-01-01 00:00:22.697326264,3.399888038635254,0.325737863779068,1.1455198526382446,-2014.78942704,-1816.76504256,-1032.03362808,-1122.3644172,1277.51752128,2586.73958088,-576.42324168,97.07460048000002,22.349570200573066,set #2
1970-01-01 00:00:22.707551322,3.399170160293579,0.3302042782306671,1.1567537784576416,-739.00564374,-317.70074076000003,-127.98212856,-206.43642863999997,963.93442236,2958.02324064,142.68998796,426.43772886,22.636103151862464,set #2
1970-01-01 00:00:22.717437586,3.398355722427368,0.33448562026023865,1.167927622795105,-190.12741488,544.47982836,826.5760971000001,767.49190206,893.86665966,3239.7075367800003,390.72702396,515.8167066,22.92263610315186,set #2
1970-01-01 00:00:22.727348408,3.397674560546875,0.3384751081466675,1.178984522819519,-212.3123652,-149.80340855999998,304.36400904,257.81417376,464.09296752,3598.76999976,605.5093948800001,625.94164776,23.209169054441258,set #2
1970-01-01 00:00:22.737327656,3.3969218730926514,0.3422219455242157,1.1899383068084717,-329.82274415999996,578.6366820000001,787.9617876000001,1199.7767964,389.49899975999995,3659.5713741600002,749.9940676800001,717.30792432,23.495702005730656,set #2
1970-01-01 00:00:22.747222266,3.3961334228515625,0.3456737697124481,1.2007029056549072,-782.18319426,111.26876514,408.35962284,691.23112032,516.92090892,3736.76259918,423.8012805,586.69163904,23.782234957020055,set #2
1970-01-01 00:00:22.757304272,3.395354747772217,0.3488801121711731,1.211315631866455,-825.90302496,106.65684432000002,14.588789279999997,-74.54916144,437.17572288,3622.7025182400002,-188.57724288,196.54707696,24.068767908309454,set #2
1970-01-01 00:00:22.767129979,3.39449143409729,0.3518306314945221,1.2217217683792114,-998.12815323,-66.54896118,-621.50997207,-621.9048794400001,-876.60927081,3345.91180638,-66.3789009,339.10091163,24.355300859598852,set #2
1970-01-01 00:00:22.777367911,3.3936705589294434,0.3545196056365967,1.231942057609558,-240.07272822000002,298.98315018,340.43807733,209.03775399,-30.91134267000001,1538.55125385,-230.77445391,-219.54130652999999,24.64183381088825,set #2
1970-01-01 00:00:22.788089595,3.392834424972534,0.35700178146362305,1.2420510053634644,-118.6140384,493.65896775000004,289.2053658,-169.49436075,392.0348406,2898.3760884000003,-594.30931365,169.3152825,24.92836676217765,set #2
1970-01-01 00:00:22.797134719,3.3920397758483887,0.3592562973499298,1.2519654035568237,42.56254041,59.495867340000004,548.93040657,-31.32084072,1035.77636214,3285.32907105,-203.30709048,326.74554159,25.214899713467048,set #2
1970-01-01 00:00:22.807409844,3.391103506088257,0.36139875650405884,1.2618346214294434,-1233.25619508,-1021.6601116800001,-49.480594800000006,-647.37644088,140.54408472,3706.39084608,90.76546128,-108.99834972,25.501432664756447,set #2
1970-01-01 00:00:22.817218861,3.3902435302734375,0.3633502721786499,1.2716530561447144,1065.93593886,755.13297483,1472.44359171,767.85860658,446.44319538,3374.54091585,1048.0299242400001,619.32,25.787965616045845,set #2
1970-01-01 00:00:22.827090106,3.3893790245056152,0.36510294675827026,1.281365990638733,911.8902881399999,79.22926128,695.19567702,144.28208963999998,154.58056224,3219.7104615000003,542.2743315600001,312.90540996,26.07449856733524,set #2
1970-01-01 00:00:22.838438592,3.388502836227417,0.3666749596595764,1.2909468412399292,-921.68404224,-1215.93974112,-269.16594432,-736.59457248,-1035.23535648,2899.86904896,526.49779104,-96.24743232,26.36103151862464,set #2
1970-01-01 00:00:22.847570738,3.3876492977142334,0.3681149184703827,1.3003830909729004,-49.869225119999996,371.46343416,766.33340862,204.71782344,-660.8095657800001,2571.1464519,530.04462576,406.10154546,26.647564469914037,set #2
1970-01-01 00:00:22.857774100,3.3869733810424805,0.3693111836910248,1.309720516204834,-911.450865,-743.13096,-300.757977,-762.5793630000001,958.387209,2421.327441,-121.91692500000002,-209.703156,26.934097421203436,set #2
1970-01-01 00:00:22.867824397,3.386362314224243,0.3703545033931732,1.3189798593521118,496.84652472000005,-65.95172726999999,580.82717121,12.392224259999992,-189.22795515,2053.19211864,178.63938534,-0.3235806599999975,27.220630372492835,set #2
1970-01-01 00:00:22.877144894,3.3856024742126465,0.3712988793849945,1.3280707597732544,-1021.20379218,-924.5053646399999,-522.47044668,-1166.7124248,-463.95699636,1811.4036189600001,219.23508204,-90.50637648,27.507163323782233,set #2
1970-01-01 00:00:22.887650094,3.3851919174194336,0.37201988697052,1.3370777368545532,553.08888102,-51.993592559999996,975.62491962,254.20031988,438.91795116,1940.89500306,516.91831776,598.54465788,27.793696275071632,set #2
1970-01-01 00:00:22.897336087,3.384716272354126,0.37261366844177246,1.345959186553955,-1263.939183,-1001.26533468,-418.69030359,-1079.05983276,914.0945447400001,1551.78355254,-17.24089107000001,-104.65345917000002,28.08022922636103,set #2
1970-01-01 00:00:22.907393059,3.3843040466308594,0.37307581305503845,1.3545713424682617,348.72247332,-472.06934151,217.1377689,-261.27954294,438.45002682,1443.34719087,423.21987903,-128.23822596000002,28.36676217765043,set #2
1970-01-01 00:00:22.917102656,3.384061098098755,0.37313008308410645,1.3626937866210938,1703.92661088,711.6297302400001,1535.0165001599999,819.3407664,-356.12483712,1313.38854816,678.26919264,643.28987424,28.653295128939828,set #2
1970-01-01 00:00:22.927062592,3.383826732635498,0.37326881289482117,1.3704668283462524,-1153.00226496,-1267.33486464,-757.1381875200001,-1276.88498496,508.09160064,1107.86134368,460.48345824,-96.17031840000001,28.939828080229226,set #2
1970-01-01 00:00:22.937147698,3.383720874786377,0.37326258420944214,1.3781170845031738,-963.63556692,-1075.13004768,-517.98026904,-880.73413584,245.86332654,486.61879655999996,-21.30585288,-307.02724883999997,29.22636103151862,set #2
1970-01-01 00:00:22.947802863,3.3836870193481445,0.3731578290462494,1.3855621814727783,423.80996189999996,291.97624326,461.91009189,189.45728841000002,-736.35094416,-3131.7027982500003,789.71012055,404.4403662,29.51289398280802,set #2
1970-01-01 00:00:22.957965932,3.3838179111480713,0.37292158603668213,1.3928117752075195,1506.73263624,1583.39808744,1645.99749132,1014.21622848,-784.2969966,-4778.64146136,1101.3272166000002,818.59791936,29.79942693409742,set #2
1970-01-01 00:00:22.967244467,3.383876323699951,0.3726746439933777,1.3998321294784546,2438.27770212,446.21448261,1699.36814229,966.9865881000001,-486.74870400000003,-3867.85323093,556.47072858,317.08136382,30.085959885386817,set #2
1970-01-01 00:00:22.977454266,3.3839352130889893,0.37230637669563293,1.406687617301941,4957.66309506,680.79687,893.43771582,555.8810205000001,-188.65403466,-4797.1098552,424.3598814,566.8975416000001,30.372492836676216,set #2
1970-01-01 00:00:22.987355313,3.3839056491851807,0.3719053566455841,1.4133458137512207,3973.70722047,1257.07377861,990.80530302,594.9793668,-339.26950161,-3119.1791221500002,265.68730578,775.3523641500001,30.659025787965614,set #2
1970-01-01 00:00:22.997389874,3.383826971054077,0.371440052986145,1.4198615550994873,2902.81222452,-119.19922638000006,932.12420418,670.47715332,-618.35428278,-2006.30459016,520.42697226,328.4367801,30.945558739255013,set #2
1970-01-01 00:00:23.007460675,3.383774757385254,0.3708873689174652,1.426233172416687,-500.742372,-2021.177262,-2144.9146192499998,-1990.003587,-1642.39103925,-897.12028575,-185.73860175,-567.84205725,31.23209169054441,set #2
1970-01-01 00:00:23.017517647,3.3836565017700195,0.37030917406082153,1.432499647140503,499.26197412,498.78253698000003,340.22686464000003,5.636680919999998,-967.35141711,-327.73994331,593.38960317,103.81113366,31.51862464183381,set #2
1970-01-01 00:00:23.027317605,3.3835339546203613,0.36968037486076355,1.4386974573135376,-671.9767587,783.581448,345.1398249,124.07925075,-795.9726781500001,356.42567025,475.40644515,-85.3045362,31.80515759312321,set #2
1970-01-01 00:00:23.037504992,3.3834292888641357,0.3690117299556732,1.4446678161621094,1422.9829910400001,2576.9171376000004,2558.17805568,2051.11380864,-547.2296544000001,971.5795564800001,1429.2727488,850.81903296,32.09169054441261,set #2
1970-01-01 00:00:23.047331652,3.3832719326019287,0.3683646321296692,1.4505255222320557,-2291.8118823600003,-1090.92884628,-1398.04350816,-1269.56949444,-346.15327968,974.57385168,115.1547618,-205.85089824,32.378223495702,set #2
1970-01-01 00:00:23.057669005,3.3830790519714355,0.36771073937416077,1.4563254117965698,-1107.8298114,-563.9220756,375.7112892,179.32166655,-84.04474845,1334.33053455,346.4782074,-213.1195599,32.664756446991404,set #2
