,x,y,z,emg_1,emg_2,emg_3,emg_4,emg_5,emg_6,emg_7,emg_8,percentage,Source
1970-01-01 00:00:15.310476098,3.4353601932525635,-0.06559434533119202,0.7561081051826477,-10.24253958,109.65676722,27.58973256,-55.34824775999999,480.41399016,-644.6062623,-81.11545572,-22.839935819999997,0.0,set #1
1970-01-01 00:00:15.320535693,3.435734510421753,-0.06807204335927963,0.7561273574829102,43.80504999,119.79983379000001,52.05084729,-21.40823919,401.71368783,-742.65755811,-80.52131217,-67.37244189,0.30864197530864196,set #1
1970-01-01 00:00:15.330775533,3.436048984527588,-0.07033511996269226,0.7561914324760437,43.40949444,107.23051989,-40.96575834,-99.31431159,221.7066852,-638.83160094,-120.30997134,31.51405881,0.6172839506172839,set #1
1970-01-01 00:00:15.340559993,3.4363787174224854,-0.0723685547709465,0.756264865398407,75.41031537,125.40839727000001,-0.1171911000000001,-44.00763003,134.33928807,-566.34291597,16.42658979,55.879096260000004,0.9259259259259258,set #1
1970-01-01 00:00:15.350402627,3.436720609664917,-0.07418753206729889,0.7563435435295105,86.77800573,149.47969257,23.34453966,-0.03496974000000019,198.417453,-412.01662632,54.82273017,95.33963204999999,1.2345679012345678,set #1
1970-01-01 00:00:15.360362086,3.4371256828308105,-0.07575599104166031,0.7564970850944519,55.46077602,99.18791141999999,-3.97431762,-43.53252072,284.68650522,-243.09694812,7.6118437199999995,-4.518640619999999,1.5432098765432098,set #1
1970-01-01 00:00:15.370913301,3.4375429153442383,-0.07710923999547958,0.7566617727279663,96.64544486999999,124.84263401999999,-3.6026164199999986,-53.660176830000005,340.57605777000003,-9.249322290000002,55.65837654,-10.037616419999999,1.8518518518518516,set #1
1970-01-01 00:00:15.380567584,3.437937021255493,-0.07823814451694489,0.7568055391311646,89.87937504000001,131.61450432,22.477952639999998,-29.94043104,167.87961216,131.48831904,62.67872832,-52.60312512,2.1604938271604937,set #1
1970-01-01 00:00:15.390492711,3.4383456707000732,-0.07908454537391663,0.756978452205658,53.5761252,108.16360737,-16.43969691,-59.56197702,118.60717908,266.14088748,77.12619057,-5.830101030000001,2.4691358024691357,set #1
1970-01-01 00:00:15.400769982,3.438734531402588,-0.0797656700015068,0.757208526134491,57.85300716,87.11859312,-67.22408238,-104.18402436,115.47117192,411.94875071999996,53.93326146,-14.386348859999998,2.7777777777777777,set #1
1970-01-01 00:00:15.410323176,3.4390525817871094,-0.08032135665416718,0.75742107629776,54.0601932,99.39292272,43.19007264,-4.544588879999999,146.86830912000002,539.00879136,215.4013524,20.13973416,3.0864197530864197,set #1
1970-01-01 00:00:15.420789752,3.4393186569213867,-0.08069396018981934,0.757611870765686,60.771088559999995,112.40405903999999,28.05589176,-22.51318368,201.14904264,620.195082,154.38488519999999,28.678085279999998,3.3950617283950617,set #1
1970-01-01 00:00:15.430977855,3.4395737648010254,-0.08086112886667252,0.7578445076942444,49.91864475,101.7281889,18.948190949999997,-25.187260799999997,278.8822608,680.9672649,182.50907805,47.361800849999995,3.7037037037037033,set #1
1970-01-01 00:00:15.440373931,3.4397695064544678,-0.080936498939991,0.7581003904342651,74.30667348,112.48084185,20.72583747,-18.61666326,259.26414501,736.4741712900001,133.50835134000002,31.16170122,4.012345679012346,set #1
1970-01-01 00:00:15.450578485,3.43990421295166,-0.08086726069450378,0.7583464980125427,85.36804575000001,119.3513451,39.20291895,-17.29484835,148.01741174999998,860.4827673000001,129.5253804,19.7448732,4.320987654320987,set #1
1970-01-01 00:00:15.460430417,3.4400150775909424,-0.08062032610177994,0.7585707902908325,70.24340037,89.00954361,5.93839584,-27.63068685,116.46034569,959.39725713,109.87958202,-7.15763217,4.62962962962963,set #1
1970-01-01 00:00:15.470588718,3.4401369094848633,-0.08021523803472519,0.7587801218032837,60.122799359999995,87.2969994,16.471199939999998,-16.332799859999998,143.20539948,1068.6160017,109.1120004,13.83880056,4.938271604938271,set #1
1970-01-01 00:00:15.480366502,3.440253734588623,-0.07967600971460342,0.7590017914772034,63.21977064,89.84389908,29.40715596,-4.30133028,249.87839448,1152.15376146,135.70866972000002,28.066743119999998,5.246913580246913,set #1
1970-01-01 00:00:15.490331922,3.4403188228607178,-0.07899939268827438,0.7591894865036011,20.176470600000002,66.35729412,-5.20440336,-33.16816386,168.44747478000002,1357.0639453800002,88.4512395,-18.53986134,5.555555555555555,set #1
1970-01-01 00:00:15.500466380,3.4403159618377686,-0.07816236466169357,0.7593156099319458,91.4896086,70.796739,24.442540200000003,4.144397399999999,223.6273416,1537.896087,139.55306819999998,-6.067565400000003,5.864197530864197,set #1
1970-01-01 00:00:15.510448728,3.440281391143799,-0.07718881964683533,0.7594082951545715,40.405297919999995,25.62529008,28.745137200000002,-6.860031360000001,204.7797648,1641.25066248,157.15992552,31.82980008,6.172839506172839,set #1
1970-01-01 00:00:15.520570073,3.440260887145996,-0.07609573006629944,0.7595028281211853,34.56965694,-23.10308754,4.14367902,-27.529729890000002,349.75086159,1753.9569637200002,196.15149645,22.96046727,6.481481481481481,set #1
1970-01-01 00:00:15.530879531,3.4402143955230713,-0.07494154572486877,0.7595658302307129,29.743529790000004,-70.52388915,-61.21129053000001,-94.52801709,516.18079539,1774.5237006900002,102.0282471,-106.38559815,6.790123456790123,set #1
1970-01-01 00:00:15.540593896,3.440113067626953,-0.07364914566278458,0.7595646381378174,31.2357084,-24.50866392,-18.46275288,-57.51127512,491.41651728000005,1794.43208568,32.48629488,-26.020141680000002,7.098765432098765,set #1
1970-01-01 00:00:15.550290856,3.4400105476379395,-0.07226720452308655,0.7595306634902954,53.168609520000004,10.14758784,4.15987416,-26.61180912,533.04577872,1750.91258784,65.69679168,1.1874532799999997,7.4074074074074066,set #1
1970-01-01 00:00:15.560473476,3.439864158630371,-0.07070688158273697,0.759489893913269,50.0751654,4.201529279999999,16.31376084,-7.86206616,518.1863232000001,1733.4714181200002,61.50929772,-11.55363612,7.716049382716049,set #1
1970-01-01 00:00:15.570446763,3.439675807952881,-0.06906396895647049,0.7594365477561951,199.37106617999999,-18.50788953,5.83372374,-36.792712709999996,167.87872374,1691.2602486,89.90793942,-292.67987307,8.024691358024691,set #1
1970-01-01 00:00:15.580439839,3.4394891262054443,-0.06721513718366623,0.7593305706977844,440.71977222,4.858834890000001,5.74155348,-14.8596279,93.68286291,1648.2088186199999,-91.00772070000001,-345.917442,8.333333333333332,set #1
1970-01-01 00:00:15.590793166,3.439347982406616,-0.06517595052719116,0.7592194080352783,406.6283052,-15.027618839999999,-9.27302532,-25.26444024,373.8936006,1724.46077076,-66.24180030000001,-242.35062306,8.641975308641975,set #1
1970-01-01 00:00:15.600666795,3.439142942428589,-0.06291166692972183,0.7590987682342529,147.6131982,-43.3555005,0.5235535499999999,-27.231346350000003,145.20604605,1606.41045045,44.78855355,-77.47464465,8.950617283950617,set #1
1970-01-01 00:00:15.610646281,3.438976526260376,-0.06034710630774498,0.7590192556381226,83.37071886000001,7.311371730000001,28.95218157,23.50056189,61.415975790000005,1542.50898321,117.63076884,-21.136710660000002,9.25925925925926,set #1
1970-01-01 00:00:15.620757613,3.438739061355591,-0.05756933614611626,0.7589062452316284,-25.07780418,-57.837804180000006,33.52908234,10.55375256,147.28294347,1299.09641745,178.95253584,68.67610815,9.5679012345679,set #1
1970-01-01 00:00:15.630469117,3.4384565353393555,-0.054502278566360474,0.7588101625442505,-96.3472185,-78.11586353999999,-20.27024571,-26.36113311,-97.10711595000001,1028.65027668,258.05039598,102.71224236,9.876543209876543,set #1
1970-01-01 00:00:15.640584264,3.4380109310150146,-0.051205266267061234,0.7587153315544128,-88.79310024,-129.97314096,1.3186773600000001,10.8606108,-219.6422592,476.60217072,164.64354816,93.30225216,10.185185185185185,set #1
1970-01-01 00:00:15.651300702,3.437554359436035,-0.04775910824537277,0.7586602568626404,-74.57593962,-98.75320182,-22.844965260000002,9.1814268,-321.60412986,-376.30071960000004,152.61001158,55.1808933,10.493827160493826,set #1
1970-01-01 00:00:15.661073480,3.4371330738067627,-0.04417421668767929,0.7586435079574585,-122.5048032,-101.5406652,-124.2206004,41.1120528,-340.496988,-24.0716268,67.446288,-0.24933480000000063,10.802469135802468,set #1
1970-01-01 00:00:15.671096120,3.436372756958008,-0.04027466103434563,0.758603036403656,-205.60566,-187.81526399999998,-197.0562672,28.0122492,-188.102772,399.8098416,-57.6605016,-18.8699472,11.11111111111111,set #1
1970-01-01 00:00:15.680729184,3.43569278717041,-0.03617197275161743,0.7587169408798218,-261.93370944000003,-306.97051008,-95.45258111999999,72.72728736,23.73406464,676.61866272,-152.18280479999999,-115.48132128,11.419753086419753,set #1
1970-01-01 00:00:15.690431390,3.4348320960998535,-0.03176567330956459,0.7588801980018616,25.761348599999998,-8.90352450000001,100.7112951,242.02508459999999,84.8587584,1717.8985668,-12.0866733,32.002389900000004,11.728395061728394,set #1
1970-01-01 00:00:15.700694594,3.4341187477111816,-0.027169931679964066,0.7591390609741211,-5.512751399999997,65.72764146,97.378749,230.62170690000002,-71.40057522000001,2281.3734996000003,1.4598323999999998,51.876299280000005,12.037037037037036,set #1
1970-01-01 00:00:15.710642610,3.4333581924438477,-0.022328926250338554,0.7594330310821533,-111.0387642,-96.23274180000001,-2.3125284,204.3573012,-32.5825422,2172.9439914,-27.8642754,-61.89943890000001,12.345679012345679,set #1
1970-01-01 00:00:15.720622811,3.432708263397217,-0.017087174579501152,0.7598759531974792,-57.1251096,-11.173317870000002,8.78191821,283.94057757,-562.55442243,1955.22734823,-25.85295531,15.56576307,12.65432098765432,set #1
1970-01-01 00:00:15.730703387,3.4321186542510986,-0.011674994602799416,0.7603561878204346,-27.62408376,-103.81605117000001,6.48790233,278.89296279,-1044.4494929700002,1697.37593025,-172.49894883,-125.79147906,12.962962962962962,set #1
1970-01-01 00:00:15.740787301,3.4316372871398926,-0.005939347669482231,0.7609546184539795,-187.25508516,-201.41211402000002,34.8430563,249.38269161000002,-1377.85021842,1647.29993337,-101.64084411,-82.06655496,13.271604938271604,set #1
1970-01-01 00:00:15.750947270,3.431283950805664,0.00020738202147185802,0.7616773843765259,-100.1888706,-219.72941250000002,80.5698582,262.445352,-1163.292117,1680.5625057,-144.42047100000002,-94.4806356,13.580246913580247,set #1
1970-01-01 00:00:15.760494027,3.43105411529541,0.006575204432010651,0.7625583410263062,-59.58651153,-215.82509598000001,11.216145719999997,214.94057286,-1556.2916226,1606.83426657,-303.16608777,-113.51795364,13.888888888888888,set #1
1970-01-01 00:00:15.771411214,3.430877208709717,0.013220854103565216,0.7635816931724548,77.94342660000001,-120.96933264,97.05888347999999,-43.12966632,-1767.52196868,1489.3298331600001,-330.34821612,-150.13908624,14.19753086419753,set #1
1970-01-01 00:00:15.781063352,3.430846691131592,0.02030213363468647,0.7648117542266846,87.95454096,-140.49538776,65.5986552,-222.10234176,-1561.63302984,1499.33295096,-180.15341759999998,-193.20809351999998,14.506172839506172,set #1
1970-01-01 00:00:15.790482793,3.4310214519500732,0.027619928121566772,0.7662069201469421,5.9171073000000005,-293.16747291,108.40580088,-222.82576992,-1945.24287009,1357.481073,-114.06712277999999,-232.92433905000001,14.814814814814813,set #1
1970-01-01 00:00:15.817901168,3.4314146041870117,0.035312216728925705,0.7678720355033875,71.30272031999999,-216.17931504,114.76880064,-328.05570095999997,-1271.5561060799998,444.06931296,-485.70697968,-284.60486496,15.123456790123456,set #1
1970-01-01 00:00:15.820487533,3.4328503608703613,0.05165504291653633,0.7721127271652222,87.91582722000001,-205.83196686,42.975734880000005,-358.80537693,-641.5719655800001,296.52281178000004,-509.47333671,-315.06651657000003,15.432098765432098,set #1
1970-01-01 00:00:15.831061874,3.433453321456909,0.06065470725297928,0.7744168043136597,107.23689444,-186.64442394,184.84954098,-321.7487403,-832.89142404,-227.07652344,-289.42687488,-131.2460253,15.74074074074074,set #1
1970-01-01 00:00:15.840738330,3.434523344039917,0.0697338655591011,0.7773042917251587,105.2966655,-139.7330766,122.8150014,-429.9975615,-402.3480864,-386.21884470000003,-350.4260253,-178.4360253,16.049382716049383,set #1
1970-01-01 00:00:15.851007495,3.435725688934326,0.07912362366914749,0.7805167436599731,140.6826915,-32.289388949999996,102.2050731,-216.12846449999998,-311.3848608,-546.9770787000001,-459.6283809,59.52469185,16.358024691358025,set #1
1970-01-01 00:00:15.860690150,3.4370601177215576,0.08887078613042831,0.7841235995292664,-200.817825,-344.195865,-29.1043545,-344.61460800000003,-780.5467020000001,-718.1492565000001,-474.53905199999997,-133.91196,16.666666666666664,set #1
1970-01-01 00:00:15.870843206,3.438413619995117,0.0987970307469368,0.7880529761314392,106.01616324,-161.22487758000003,19.22414286,-173.59280952,121.25209512,-500.51606124,-219.0909864,-19.5937755,16.975308641975307,set #1
1970-01-01 00:00:15.881266627,3.4399900436401367,0.10908259451389313,0.7924922704696655,142.80670170000002,-145.37712813,-103.40094804,-253.95554145000003,1263.61273701,-489.73485522000004,-183.13070607,-137.31844308,17.28395061728395,set #1
1970-01-01 00:00:15.890559707,3.441534996032715,0.1195300742983818,0.7973381876945496,12.24186093,-261.18313962,-224.53814291999998,-282.90457377,1186.17486819,-765.64557069,-205.75971273,-71.85585576,17.59259259259259,set #1
1970-01-01 00:00:15.900420938,3.443129539489746,0.13012850284576416,0.802605152130127,-146.04480696000002,-517.7156563799999,-209.14654644,-278.76069702,1060.02280332,-1466.497656,-49.95978156000001,-155.94812844,17.901234567901234,set #1
1970-01-01 00:00:15.910676990,3.4446966648101807,0.14101587235927582,0.8083436489105225,-16.7976003,-308.61936690000005,-137.32661670000002,-273.5073393,1094.3813244,-1952.7402804,120.396003,-115.9543281,18.209876543209877,set #1
1970-01-01 00:00:15.920979295,3.4462838172912598,0.15206840634346008,0.8145798444747925,369.10630380000003,345.6296922,135.6165603,-82.0022385,1096.7066272499999,-2715.2404617,408.90692505000004,144.40617555,18.51851851851852,set #1
1970-01-01 00:00:15.931447301,3.447899580001831,0.16327069699764252,0.8212775588035583,140.40003471,95.32245723,-52.487077889999995,-348.58881525,776.45792211,-3811.57479612,241.82055261000002,-81.11047307999999,18.827160493827158,set #1
1970-01-01 00:00:15.941062722,3.449591636657715,0.174590066075325,0.8284747004508972,-373.92553302,-629.1212202600001,-168.16061418,-495.32446158,1170.1119183,-4361.49092262,74.77869048000001,-325.16215368,19.1358024691358,set #1
1970-01-01 00:00:15.950575862,3.4513661861419678,0.18601900339126587,0.836137592792511,-85.86991218,-202.86453252,72.72693636000001,-259.04606286,1185.63496584,-4478.6591499,151.23393324,-183.3941382,19.444444444444443,set #1
1970-01-01 00:00:15.960593495,3.4532971382141113,0.19741222262382507,0.8442336916923523,308.8277595,70.9293507,241.83018795,-127.12881675,1276.8743208,-3467.64076035,-25.817699700000002,-70.5818646,19.753086419753085,set #1
1970-01-01 00:00:15.970461402,3.455275774002075,0.2086952030658722,0.8526917099952698,310.79037522000004,144.47873076,290.01500268,-40.43265564,926.9889915,-2928.5271288000004,39.03010644,-20.898565740000002,20.061728395061728,set #1
1970-01-01 00:00:15.980708394,3.457287311553955,0.21980524063110352,0.8614742755889893,232.20402972000002,-117.97112418,40.443150540000005,-243.07899876000002,1453.90164426,-2121.64882098,-29.030497079999996,-128.67322572,20.37037037037037,set #1
1970-01-01 00:00:15.991196666,3.4592676162719727,0.23075279593467712,0.8705178499221802,45.788506919999996,210.03957234,-76.54665252000001,-358.87940946000003,589.6605351000001,-1610.7871486200002,-48.28074654000001,-36.45594498,20.679012345679013,set #1
1970-01-01 00:00:16.008342300,3.460853099822998,0.24154552817344666,0.8800930976867676,163.438314,138.926931,46.827534,-226.759299,898.049217,-566.352384,-148.16314500000001,-86.28652500000001,20.98765432098765,set #1
1970-01-01 00:00:16.011072192,3.4628913402557373,0.2520194351673126,0.8895798325538635,-13.73662368,-13.777283520000003,-45.31821216,-159.17945472,669.84591648,-328.48742784,-131.22980832000002,-133.42175808,21.296296296296294,set #1
1970-01-01 00:00:16.021336351,3.4642138481140137,0.26245707273483276,0.8994640707969666,465.03480738,716.31512121,390.87831666,153.07065618,381.65383736999996,288.93622680000004,132.66138366,323.72172612,21.604938271604937,set #1
1970-01-01 00:00:16.051066670,3.4660348892211914,0.27265459299087524,0.9094283580780029,442.6512039275922,450.2687993424013,189.3454913990172,-0.14260360479279033,282.60705241589517,1601.9515421769156,126.95808681382637,207.98711793576413,21.91358024691358,set #1
1970-01-01 00:00:16.060699020,3.4712913036346436,0.30169346928596497,0.9404107332229614,14.114895600000004,68.4342672,67.6971204,-135.9964398,732.0687426,2151.9343716000003,-65.83730399999999,292.7252094,22.22222222222222,set #1
1970-01-01 00:00:16.071929727,3.471724271774292,0.3121110796928406,0.9517604112625122,-375.07628963999997,-205.48997469,52.91479752000001,-151.60865538000002,-531.7551419700001,2257.97775528,-69.15618839999999,196.31866527,22.530864197530864,set #1
1970-01-01 00:00:16.080645595,3.472848415374756,0.32129013538360596,0.9627963304519653,442.65724424999996,519.2682573000001,282.2506674,100.50162914999999,-790.1844093000001,2252.07808995,552.71711625,-4.3857177,22.839506172839506,set #1
1970-01-01 00:00:16.091812167,3.474069595336914,0.3301461338996887,0.9739027619361877,328.2058646517293,293.7136789173578,450.0631110362221,129.87,-1077.658436576873,1991.603193976388,267.7991703383407,458.27994893989785,23.148148148148145,set #1
1970-01-01 00:00:16.100599561,3.4753026962280273,0.33871620893478394,0.9849497675895691,-188.49908415000002,-178.65913533,-49.453198470000004,-280.94761071,-1639.92113727,2020.9543185,-43.97320278,409.78464228,23.456790123456788,set #1
1970-01-01 00:00:16.110512290,3.476287364959717,0.34724000096321106,0.9961933493614197,-295.28713098573803,-13.36027230945538,62.98040190919618,-188.56979348041304,-1275.998315443369,2325.19418505163,619.5993591712818,28.188912742174516,23.76543209876543,set #1
1970-01-01 00:00:16.120699201,3.4770140647888184,0.35561829805374146,1.0075773000717163,179.0132896565793,379.3544209288419,167.26899492798987,-26.570523821047644,-990.0521994443989,2583.789622909246,700.6950425700851,51.908240746481496,24.074074074074073,set #1
1970-01-01 00:00:16.130439076,3.4776642322540283,0.36344724893569946,1.0189417600631714,-246.14813718372565,-286.38371906256185,-18.073508432983132,-305.60268562462875,-827.7881437537126,2537.9913634372733,-488.4528940642119,120.20846937306125,24.382716049382715,set #1
1970-01-01 00:00:16.141038213,3.4776618480682373,0.3710462152957916,1.030198335647583,-297.7537013325973,-667.1269947560105,-340.72821848356307,-690.983046973906,-535.267790474419,2545.9137229625544,-500.98480686038624,-157.86309023381955,24.691358024691358,set #1
1970-01-01 00:00:16.150889430,3.477781295776367,0.378418892621994,1.0415688753128052,236.6057694,161.1580776,198.24092729999998,-45.7865187,75.08857590000001,2589.3564606000004,-501.11721660000006,63.01728810000001,25.0,set #1
1970-01-01 00:00:16.160396133,3.4778783321380615,0.38556793332099915,1.053009271621704,422.12425972851946,667.6686318672638,283.225623501247,86.97359112718226,490.6821084042168,2688.4545296490596,-291.69097926195855,388.38620953241906,25.30864197530864,set #1
1970-01-01 00:00:16.170189891,3.4778153896331787,0.3924458920955658,1.0645008087158203,117.47631012,230.65357653,203.59012712999998,58.44461298,615.48876441,2767.50393036,-147.93523485,18.39288828,25.61728395061728,set #1
1970-01-01 00:00:16.180575166,3.4775736331939697,0.3991064727306366,1.0760626792907715,-585.3004815290369,-619.9677403445194,-251.09287762424475,-287.1574662050676,1268.7026756946486,2767.102123005754,-896.2078094043812,240.78438392123215,25.925925925925924,set #1
1970-01-01 00:00:16.190562520,3.4772164821624756,0.4054620862007141,1.0876542329788208,191.58991741983485,815.1250107500215,470.07712582425165,481.62976129952256,1166.5635252870504,2469.3726105552214,-704.6555328610658,868.5787029074058,26.234567901234566,set #1
1970-01-01 00:00:16.202050004,3.47674822807312,0.4115636646747589,1.0992201566696167,68.56172855999999,586.949688,244.99847424,403.80624648,515.91143292,2513.2380218400003,-365.02077923999997,680.21856708,26.54320987654321,set #1
1970-01-01 00:00:16.211596522,3.4762229919433594,0.4173906445503235,1.1107711791992188,-331.8679143,98.08605534,21.5110389,240.23016888,-97.92701802,2175.43592916,-653.80750032,633.30437508,26.85185185185185,set #1
1970-01-01 00:00:16.227944884,3.4755523204803467,0.42301100492477417,1.1222727298736572,202.43941848,324.2727618,126.31259004,188.86449504,-719.6636475600001,2239.90205712,-500.70877272,502.80348612,27.160493827160494,set #1
1970-01-01 00:00:16.230474744,3.4747226238250732,0.428328275680542,1.1337662935256958,82.23529704,247.30379544,192.60130344,313.90088496000004,-502.49184336,2148.40591368,-298.38300648,402.01400304000003,27.469135802469133,set #1
1970-01-01 00:00:16.241088662,3.4736926555633545,0.4334183931350708,1.1451915502548218,-16.723034546069094,22.528119326238652,156.5605941411883,278.5030689561379,144.58926006852016,2029.9886393272786,-219.7695119190238,195.3724854549709,27.777777777777775,set #1
1970-01-01 00:00:16.250783000,3.4724924564361572,0.4383229911327362,1.156642198562622,339.0546624106752,-421.821282017436,-71.65352475295049,39.06240338519323,110.93980134039732,1740.7388786322426,-646.2202203795592,-149.78260747478507,28.086419753086417,set #1
1970-01-01 00:00:16.260730777,3.4710845947265625,0.4429306387901306,1.167983889579773,163.75289112,198.44833047,58.70881224,166.24397283,-33.886121100000004,1771.34989395,-834.8223487500001,-96.4197273,28.39506172839506,set #1
1970-01-01 00:00:16.270298991,3.4693453311920166,0.44744694232940674,1.179306149482727,-108.99320169640339,-206.36709104418208,-144.16910442820887,-40.598541437082886,-177.2272085444171,1687.0911024822049,-1096.0733697767396,-142.00188413376827,28.703703703703702,set #1
1970-01-01 00:00:16.280440364,3.467867612838745,0.4516295790672302,1.1905767917633057,-539.302764,-374.7361332,-236.59558572,-136.63587288000002,-81.61564320000001,1640.3114816400002,-877.24416156,-54.23522208,29.012345679012345,set #1
1970-01-01 00:00:16.290584121,3.465700626373291,0.45530566573143005,1.2014046907424927,38.779931190000006,-156.80433366,-17.70703272,111.6546405,-514.87704255,1435.64086926,-363.3863727,91.60797711,29.320987654320987,set #1
1970-01-01 00:00:16.300496612,3.4642252922058105,0.4591050148010254,1.212815284729004,-187.8578832,29.354939639999998,-130.38705732,109.79535996,-218.38205688000002,1323.8814264,77.381967,104.57605079999999,29.629629629629626,set #1
1970-01-01 00:00:16.310524020,3.4624557495117188,0.4625200629234314,1.2238378524780273,34.6095828,112.00187700000001,-179.95950960000002,175.4111268,55.1724108,1183.8799986000001,-38.169034800000006,337.4401602,29.93827160493827,set #1
1970-01-01 00:00:16.320600543,3.4605255126953125,0.465706467628479,1.234724521636963,-327.62008383,-112.50434286000001,-76.21948464,319.30937493000005,283.59469281,1013.95231743,-206.91300045,94.39912794,30.24691358024691,set #1
1970-01-01 00:00:16.330661330,3.4585044384002686,0.46868106722831726,1.2454943656921387,-256.863984,-273.67817099999996,-322.9156749,57.4596828,664.9399107,901.3658862,-87.5434716,189.5347155,30.555555555555554,set #1
1970-01-01 00:00:16.340928111,3.456529140472412,0.471478670835495,1.2562071084976196,-253.73300854398292,99.3555261989476,-23.158506632986736,387.64916348167304,355.0192134015732,740.4083251633497,81.36534382931235,294.9789266921466,30.864197530864196,set #1
1970-01-01 00:00:16.350681100,3.4545607566833496,0.47404196858406067,1.266829013824463,287.79102300000005,586.853358,430.643187,724.741524,-0.32256900000000144,669.910917,538.074147,508.49292,31.17283950617284,set #1
1970-01-01 00:00:16.361093316,3.4524669647216797,0.4764087200164795,1.2772974967956543,-31.18053588,-41.08203216,299.521521,618.20755152,436.35176832,567.06711048,90.59714352,418.49030496,31.48148148148148,set #1
1970-01-01 00:00:16.370652947,3.450432300567627,0.47852665185928345,1.2875488996505737,-568.4576547653096,-544.9153668807338,-336.821456512913,-27.11214052428105,-218.2240413980828,409.79130991261985,44.7098890997782,256.3913292826586,31.790123456790123,set #1
1970-01-01 00:00:16.380965505,3.448376417160034,0.48043012619018555,1.2976444959640503,-822.9540891,-279.45011445,14.00047155,332.2469904,129.22134615000002,277.58555175000004,327.330939,72.36538725,32.098765432098766,set #1
1970-01-01 00:00:16.390944514,3.4463393688201904,0.4821159243583679,1.3075392246246338,-189.01175798351596,-17.996510723021444,216.32436826873652,565.9772985545972,276.72293028586057,323.9815567731136,314.9921429242859,336.48566857133716,32.407407407407405,set #1
1970-01-01 00:00:16.400477204,3.444281578063965,0.4836069643497467,1.3171610832214355,-321.5033231533537,113.49658435683128,-426.3896494207012,-3.226633976732046,-279.46402842194317,289.3770535558929,133.18799753400492,253.66007868984263,32.71604938271605,set #1
1970-01-01 00:00:16.410442863,3.442324638366699,0.4848906397819519,1.3265594244003296,313.80511393022783,401.76130149260297,333.7896099492199,670.5653373106746,-682.9408502517006,153.15876865753734,201.54059154118306,273.2834880569761,33.02469135802469,set #1
1970-01-01 00:00:16.420768771,3.4404265880584717,0.4859806001186371,1.3357453346252441,1533.87698022,657.83522142,519.17230404,844.18675224,-504.60944820000003,14.20804827,391.87773807,713.7122346900001,33.33333333333333,set #1
1970-01-01 00:00:16.430166993,3.4385416507720947,0.4869284927845001,1.344657063484192,1975.1229707959415,1005.1459601019202,823.533004026008,1127.6522063944128,504.740186500373,-60.70668759337519,704.1553194206389,490.4530539261078,33.641975308641975,set #1
1970-01-01 00:00:16.440944944,3.4367165565490723,0.4877294600009918,1.3532861471176147,706.1988014376029,-1061.831231482463,-100.45742505485012,289.3852482404965,682.8812171824344,-188.298951997904,-136.04246512493023,236.10087882175765,33.95061728395061,set #1
1970-01-01 00:00:16.451067004,3.4348528385162354,0.4884244501590729,1.361670970916748,1722.34810644,530.85720636,646.38104388,929.26391376,-52.34258016,-0.73760388,-91.00831272,292.489353,34.25925925925926,set #1
1970-01-01 00:00:16.460518632,3.4330413341522217,0.4887736141681671,1.3696097135543823,1774.729130528261,-37.404390978781954,363.46326506653014,617.7046362692726,-272.1808993017986,8.473487666975334,599.8797048294098,-88.0176649453299,34.5679012345679,set #1
1970-01-01 00:00:16.470442329,3.4311976432800293,0.48911869525909424,1.3772635459899902,2106.5810508678983,511.57800779398445,271.3441292217416,524.6718380963238,-438.4416338567323,-89.31568696862607,469.3171537256926,422.0090475319049,34.876543209876544,set #1
1970-01-01 00:00:16.481215510,3.4295051097869873,0.4893706440925598,1.384771466255188,1337.4629268,-646.2757431,-104.4560049,119.7572298,-459.44680470000003,-29.0409756,144.4724229,22.0649169,35.18518518518518,set #1
1970-01-01 00:00:16.490281615,3.4277570247650146,0.48960012197494507,1.3921133279800415,1847.7463299273402,739.8299847900305,363.9020228359543,567.8761599476801,82.46156143687713,-105.02688276623446,90.55795460409081,348.6372458855082,35.49382716049382,set #1
1970-01-01 00:00:16.500538859,3.4263012409210205,0.4897087514400482,1.3992724418640137,549.5462746074509,693.5098335903328,260.16227594544813,536.5358912682175,907.9220744058512,-74.83757042485915,86.7770471059058,61.93115931768136,35.80246913580247,set #1
1970-01-01 00:00:16.510521207,3.425063371658325,0.4897176921367645,1.4063081741333008,-901.97169738,-542.96715096,-172.44077604,109.07688519,-48.67556343,-89.70382707,-44.61208362,117.00193479,36.11111111111111,set #1
1970-01-01 00:00:16.520459924,3.423877716064453,0.48967456817626953,1.413153886795044,-888.6993497586996,-58.88840762681526,606.3539377378755,555.1879874259748,-741.6729194358389,-241.5097602495205,389.64138687277375,-4.297320314640629,36.41975308641975,set #1
1970-01-01 00:00:16.531039033,3.4228293895721436,0.489577054977417,1.4198222160339355,420.9844911110178,1012.3124101951796,1192.1436537826926,1402.0266866266268,-396.2558877882244,-300.09990934018134,626.4385212129575,496.9708912082176,36.72839506172839,set #1
1970-01-01 00:00:16.541187797,3.4219043254852295,0.48937997221946716,1.4263430833816528,-2588.54008218,-1357.2754634399998,-716.73630561,-322.36502181,102.79094592,-262.52437497,-336.51254832,-106.55562021000001,37.03703703703704,set #1
1970-01-01 00:00:16.550486121,3.421027183532715,0.48908692598342896,1.4327585697174072,-869.49417438,557.29556454,507.96306366000005,807.79145499,255.991281,-193.25041281,487.00535169,117.10547940000001,37.34567901234568,set #1
1970-01-01 00:00:16.560295138,3.4201459884643555,0.48870715498924255,1.438956379890442,-887.2552903394194,424.3865490769019,50.34655072689855,453.74467012065975,186.94132482735034,-356.4288472523055,302.92985483029037,289.0102760594479,37.654320987654316,set #1
1970-01-01 00:00:16.570559297,3.419316053390503,0.4882303476333618,1.444996953010559,-607.7655511199999,649.77029715,706.1401577099999,992.97401229,104.74356906,-339.67315239000004,540.65107902,33.99284031,37.96296296296296,set #1
1970-01-01 00:00:16.580604587,3.418600559234619,0.4876044690608978,1.450823187828064,-93.10327104,690.99139239,476.03114832,861.8259542100001,245.32076010000003,-402.63814539,57.231641999999994,98.57523975000001,38.2716049382716,set #1
1970-01-01 00:00:16.590281043,3.4178481101989746,0.4868904948234558,1.4563922882080078,-585.2605661511324,634.2401978303957,85.10152849305699,539.7879478458957,-1050.8900602901206,-741.4788655777312,327.0797822495645,14.535611821223643,38.58024691358025,set #1
1970-01-01 00:00:16.600306783,3.4172940254211426,0.4861454367637634,1.4617177248001099,-1503.41717994,222.97473393,-91.77524343,341.51475657000003,238.5877962,-534.06070926,87.44698989,138.4099353,38.888888888888886,set #1
1970-01-01 00:00:16.610830340,3.4167890548706055,0.4854315221309662,1.4668148756027222,-29.641269057461898,722.9162579874841,218.96105326789345,623.3473647752704,876.7364080471839,-474.82186518626963,467.41039722920556,-146.03785797428407,39.19753086419753,set #1
1970-01-01 00:00:16.620705400,3.4163882732391357,0.48473039269447327,1.4717060327529907,-198.86413123826247,67.67683613367227,-121.88066983133967,464.02533942067885,995.2066447532895,-394.37046652093306,-78.58725030450061,-84.38518091036183,39.50617283950617,set #1
1970-01-01 00:00:16.630578075,3.4161033630371094,0.4840201735496521,1.4764302968978882,-209.7837105,571.7533282500001,-20.02994175,518.98572375,204.76248,-354.47518275,688.60986675,-87.58732125,39.81481481481481,set #1
1970-01-01 00:00:16.640896592,3.415855646133423,0.48333245515823364,1.4809695482254028,167.91790123580247,1102.9310066020132,574.9604486008972,1189.7698013696029,-872.4057462414926,-403.523298496597,644.65964001928,389.93973902947806,40.123456790123456,set #1
1970-01-01 00:00:16.650785956,3.4157063961029053,0.4826510548591614,1.4852936267852783,-1170.8720556,-140.43596424,-714.2091122400001,193.92667476,-156.97731036,-487.3356852,380.79078648,16.663427040000002,40.432098765432094,set #1
1970-01-01 00:00:16.660403285,3.415494680404663,0.48198434710502625,1.489471435546875,-1018.2731968163937,-707.6574187848375,-102.43713960427921,602.4679130258261,-379.3377437154875,-565.4765469130939,57.16086953173908,144.7874393548787,40.74074074074074,set #1
1970-01-01 00:00:16.671054635,3.4152402877807617,0.48128920793533325,1.4935011863708496,-305.57914530000005,-408.26413875000003,97.968858,745.1854722,-176.27082719999999,-492.58484535,403.69078425,360.91644030000003,41.04938271604938,set #1
1970-01-01 00:00:16.680645022,3.4149060249328613,0.4806201457977295,1.4973286390304565,-412.6362524374951,-25.759795190409623,4.48392243215514,699.0359852580294,-239.61165275669447,-554.3292308915383,754.6694114311772,143.1586743026514,41.358024691358025,set #1
1970-01-01 00:00:16.690455470,3.4144461154937744,0.48001018166542053,1.500975489616394,-366.8462772,-157.49152379999998,219.04908479999997,586.0629957000001,-554.8101585000001,-647.9194995,423.1394895,426.6310464,41.666666666666664,set #1
1970-01-01 00:00:16.700659785,3.4138994216918945,0.47941893339157104,1.504468560218811,-70.40771985,379.09596075,108.15801555,453.63427005,-2163.2790231000004,-539.42326425,584.50089945,307.97965575,41.9753086419753,set #1
1970-01-01 00:00:16.710550819,3.4133284091949463,0.4788535535335541,1.5078526735305786,-137.39441725883452,-97.5101681003362,11.043932887865775,382.7254737909476,-162.29241688483378,-464.18312476624953,712.6234285868571,206.76969430938863,42.28395061728395,set #1
1970-01-01 00:00:16.720598016,3.41263747215271,0.4783373773097992,1.510996699333191,-234.77797823999998,593.5068422400001,147.67320672,509.7640704,586.15048128,-414.80663327999997,325.14116544,282.23186784,42.59259259259259,set #1
1970-01-01 00:00:16.730232511,3.411900281906128,0.47783711552619934,1.5139591693878174,81.97967934,648.2915029500001,-99.29822838000001,255.31932192,369.03951006,-428.95505562,332.04500121,403.52334204,42.901234567901234,set #1
1970-01-01 00:00:16.741459165,3.4112532138824463,0.4773179590702057,1.5168150663375854,-292.38225135450267,227.2138007876016,-171.14663813327627,153.61612062224125,218.5826319052638,-436.0086498072996,434.9214941629883,156.1189307378615,43.20987654320987,set #1
1970-01-01 00:00:16.750499997,3.4106037616729736,0.4768117368221283,1.5194485187530518,-91.06450781901563,-541.9046911193822,-332.2794641389283,-63.76454603909209,577.980141960284,-401.30997581995166,290.940312000624,-55.184758979517966,43.51851851851852,set #1
1970-01-01 00:00:16.760304246,3.409930944442749,0.47631606459617615,1.5218499898910522,192.13021776,496.55462376,446.32011372,601.3377474,496.57854948000005,-402.4348887,417.54285144,460.4823639,43.82716049382716,set #1
1970-01-01 00:00:16.770128284,3.409348487854004,0.47583848237991333,1.5240650177001953,-747.9389192278385,-360.5516651033302,-533.6498745497491,-311.0753065906132,675.378425466851,-414.18753052506105,160.38947671895346,-32.64938212876426,44.1358024691358,set #1
1970-01-01 00:00:16.780806813,3.408812999725342,0.4753735363483429,1.5260611772537231,143.57353813707627,169.05820657641317,149.69435116870233,211.53584587169175,600.0454793409587,-319.387803495607,325.65023517047035,249.69347616695234,44.44444444444444,set #1
1970-01-01 00:00:16.790615592,3.4082953929901123,0.47496297955513,1.527827262878418,-666.12109512,-316.11489,-61.006916880000006,-1.3022630399999997,263.08115496000005,-377.09017632,288.92283888000003,120.3422064,44.75308641975308,set #1
1970-01-01 00:00:16.800468001,3.407891035079956,0.47463297843933105,1.5293161869049072,-119.15087417999999,438.35884833,29.136288089999994,80.97034218,220.03950267000002,-398.22117465,131.7655053,127.85302569000001,45.06172839506173,set #1
1970-01-01 00:00:16.811846528,3.4075942039489746,0.4743824303150177,1.5305575132369995,231.4945248909502,94.6814183071634,322.5111634276731,293.8193342113316,522.6674480251039,-369.23547276905447,301.48658666682667,212.3853762592475,45.37037037037037,set #1
1970-01-01 00:00:16.820579801,3.4073634147644043,0.4742125868797302,1.531537652015686,-137.14910664,686.89939383,291.97185029999997,251.78430966000002,13.474907159999999,-272.78703309,404.30442273,410.11697492999997,45.67901234567901,set #1
1970-01-01 00:00:16.830564771,3.407191753387451,0.47411197423934937,1.5322738885879517,117.4876482,1333.62933795,256.33967736,274.98574077,-87.13265379,-263.39540136,504.93294072,445.16990622,45.98765432098765,set #1
1970-01-01 00:00:16.841448340,3.407108783721924,0.47411343455314636,1.5327962636947632,-430.3636584,-97.7935608,-151.2711096,-219.2959158,-113.78863860000001,-319.1394336,95.32832400000001,61.26878940000001,46.29629629629629,set #1
1970-01-01 00:00:16.850448642,3.4070708751678467,0.4741794168949127,1.5331183671951294,447.60627366,792.06582936,510.33483384,441.84216804,-38.26949646,-288.33431874,360.93902832000003,260.71316934,46.60493827160494,set #1
1970-01-01 00:00:16.860369001,3.4070515632629395,0.4743061363697052,1.5332387685775757,218.0304239508479,706.2846066792134,336.28033667067336,258.2472103944208,-142.49821355642712,-302.493289506579,229.0597052894106,240.77766833533667,46.913580246913575,set #1
1970-01-01 00:00:16.870457921,3.407076835632324,0.4744579792022705,1.5331963300704956,-393.17211882000004,-197.28196098,69.66134604,0.5801838899999971,44.53626489,-306.78230271,72.80163267,62.669351549999995,47.22222222222222,set #1
1970-01-01 00:00:16.880263600,3.407153606414795,0.4746432900428772,1.5330228805541992,-58.425171629656745,-112.29704347591304,11.747052625894746,-85.41752893494213,38.197243545512904,-306.9577757444485,66.19545602908795,-3.22782347435305,47.53086419753086,set #1
1970-01-01 00:00:16.890645299,3.407273292541504,0.47489577531814575,1.5326961278915405,343.7500227800456,-230.2099634499269,148.91334262668525,42.46501224002448,118.00834194668388,-334.8633312366625,31.57000544001088,28.043334466668934,47.839506172839506,set #1
1970-01-01 00:00:16.900680337,3.4074246883392334,0.4751735031604767,1.532265305519104,-88.48484112,394.41181728000004,36.65891385,4.77531405,327.17516013000005,-295.56237711,145.1632572,81.25781157,48.148148148148145,set #1
1970-01-01 00:00:16.910290990,3.407639265060425,0.47547850012779236,1.5316904783248901,80.88070293140586,464.93803757607515,217.31750993501987,126.0160450520901,242.503066496133,-277.18916997834,178.5504788509577,114.13653354306709,48.456790123456784,set #1
1970-01-01 00:00:16.920615707,3.407937526702881,0.4758169651031494,1.531015396118164,-344.57757711,-201.79472586,-151.70630436000002,-287.38586877,107.38537719,-293.13012573000003,-51.46159395000001,-98.26628409,48.76543209876543,set #1
1970-01-01 00:00:16.931187425,3.4083523750305176,0.4762061536312103,1.5301729440689087,-21.079655999999993,-34.59394575,-66.66360675,-168.16403175000002,-109.7343195,-343.71260625,-35.488127999999996,-131.98813875,49.07407407407407,set #1
1970-01-01 00:00:16.940899406,3.4087650775909424,0.47663626074790955,1.52922523021698,-588.8320458740917,-216.58455572911146,-265.7260061420123,-302.3941033382067,9.962351134702269,-320.9653730307461,-121.2125961551923,-152.80722312444624,49.382716049382715,set #1
1970-01-01 00:00:16.950570617,3.4092414379119873,0.4770943820476532,1.528126835823059,215.96091543,-77.91611607,110.54441463,-0.8316036300000003,-206.97983748000001,-317.72559039000004,-59.1514677,-116.81638644,49.691358024691354,set #1
1970-01-01 00:00:16.960577283,3.4096946716308594,0.4775541424751282,1.526934266090393,312.4968879037758,324.9499875999752,246.14618234236468,175.7014077128154,-157.97056513113026,-246.17859569719138,224.51168857337714,158.7930373860748,50.0,set #1
1970-01-01 00:00:16.970462594,3.410041570663452,0.47806423902511597,1.5256208181381226,250.6747013505973,335.325503518993,199.98877135245732,127.71136094727811,-116.06194540610919,-241.33852601294797,98.01887797224406,-17.923944122111756,50.30864197530864,set #1
1970-01-01 00:00:16.980574164,3.410442590713501,0.478590190410614,1.5241957902908325,57.38132712,239.66119788,36.31764708,-25.25386656,-204.01469868,-252.8272812,74.76241032,-12.18518652,50.61728395061728,set #1
1970-01-01 00:00:16.990694795,3.410856246948242,0.47913044691085815,1.5226695537567139,176.72874375,459.87366555,-52.25415975,-79.80729120000001,-218.5851564,-273.31895175,-8.33179035,-33.3499218,50.925925925925924,set #1
1970-01-01 00:00:17.000405345,3.4112977981567383,0.47967803478240967,1.5210223197937012,206.57711036422074,50.450676011352016,43.382959025918055,-53.499908029816055,-101.55024039048078,-255.41786705573412,-49.55869313738627,-54.83019523039046,51.23456790123456,set #1
1970-01-01 00:00:17.010408197,3.411687135696411,0.48027339577674866,1.5192620754241943,319.34915415,16.699550399999993,194.73845157,124.5633948,-56.35371066,-276.92748876,-24.95745447,-57.41056542,51.54320987654321,set #1
1970-01-01 00:00:17.020550761,3.4120547771453857,0.48086971044540405,1.5174022912979126,369.2468006863987,284.10902053195895,255.88943786112426,141.88077477845044,-142.62916534166934,-261.4564084071832,71.87677746644508,-26.907065255869487,51.85185185185185,set #1
1970-01-01 00:00:17.030692134,3.41241717338562,0.48145413398742676,1.5154424905776978,-117.88960113920228,-127.61771195542391,-118.8492631885264,-206.37446595893192,-91.64560664121329,-280.18696011392024,-118.81770861541725,-150.8393291086582,52.160493827160494,set #1
1970-01-01 00:00:17.041026387,3.412860631942749,0.48199692368507385,1.5133721828460693,164.0169024,327.24773523000005,57.457450050000006,-19.012367400000002,-175.6841814,-230.65254420000002,42.04321446,19.475724449999998,52.46913580246913,set #1
1970-01-01 00:00:17.050563130,3.413339853286743,0.48255833983421326,1.511048436164856,-54.37233197466395,-25.16464666929334,10.102646115292231,-117.09249336498672,-449.1924674449349,-210.8333827067654,-79.65052737105475,-20.233570017140035,52.77777777777777,set #1
1970-01-01 00:00:17.060360942,3.4138107299804688,0.4831591546535492,1.5086588859558105,244.33737041525916,335.91920986158027,120.55919723160555,31.608079973840052,-289.3820759658481,-217.26704329591342,21.025032669934664,28.286263177473643,53.08641975308642,set #1
1970-01-01 00:00:17.070893560,3.414295196533203,0.48371052742004395,1.5061216354370117,234.18000840000002,-9.325118400000001,62.376631200000006,-35.8067424,-298.7246496,-264.3987216,-151.5118644,-34.9262784,53.395061728395056,set #1
1970-01-01 00:00:17.080413613,3.4149112701416016,0.48422038555145264,1.5034343004226685,279.6054893290214,-12.528885622228756,-28.20969853060294,-133.9446046007908,-101.54597865804269,-278.7724431951136,-209.09209648580702,-55.33613405773188,53.7037037037037,set #1
1970-01-01 00:00:17.090460811,3.415496349334717,0.48475414514541626,1.5004795789718628,83.2307497414995,202.16969906939815,-0.2830165460330921,-72.48623371246742,-166.61746742493483,-298.81328231656465,18.590915201830402,-127.61856566713134,54.01234567901234,set #1
1970-01-01 00:00:17.100617204,3.41613507270813,0.4852621257305145,1.4971858263015747,297.32728584,198.93824184,91.18373471999999,23.817727440000002,47.273842200000004,-298.10635296,-104.86969896000001,185.3087496,54.32098765432099,set #1
1970-01-01 00:00:17.110378299,3.416787624359131,0.4857638478279114,1.4938366413116455,104.50098434196867,167.35964748929499,-71.99164291328583,-156.7537369574739,-5.444032198064395,-317.49088572177146,-72.68186434372869,-23.800904811809623,54.629629629629626,set #1
1970-01-01 00:00:17.120306287,3.4174370765686035,0.48625797033309937,1.4901851415634155,100.50369264,115.62190457999999,-74.84636562,-131.64438456,-432.21409686,-299.47924071,-116.08661688,18.65356701,54.938271604938265,set #1
1970-01-01 00:00:17.130939517,3.4182119369506836,0.4867329001426697,1.4860796928405762,-148.29918909,-134.92128936,-99.1040934,-155.91198168,-127.743837,-285.62153022,-252.44956776000004,-35.17389057,55.24691358024691,set #1
1970-01-01 00:00:17.141196284,3.4188759326934814,0.4872618019580841,1.4818521738052368,168.14385928228145,181.2554735490529,63.82706096587807,-25.049468941062116,-121.08153371693257,-183.2804524590951,56.37707629584741,-22.333958972082055,55.55555555555555,set #1
1970-01-01 00:00:17.150416646,3.419778347015381,0.4876898229122162,1.4772560596466064,-143.3880971938056,-291.1975215549569,-181.05776383447233,-275.3401439097122,157.65589300821398,-317.4280676438647,-174.9468364163272,-131.82110330779338,55.864197530864196,set #1
1970-01-01 00:00:17.160352264,3.420532464981079,0.48816925287246704,1.4725323915481567,-384.59541404082813,139.11993982987966,-199.22748521497044,-313.14771262542524,137.59595757191516,-366.6975688351377,-111.03504181008361,-72.56201203402406,56.172839506172835,set #1
1970-01-01 00:00:17.170844350,3.421427011489868,0.48862800002098083,1.4675194025039673,-98.0991765,43.919499,-105.929499,-208.9539465,-210.12369300000003,-258.1737405,-103.9051065,-25.292611500000003,56.48148148148148,set #1
1970-01-01 00:00:17.180476699,3.422445774078369,0.4890006184577942,1.462059736251831,146.11066392,-6.2403759600000015,-8.838987689999996,-104.37157067999999,-325.45954077,-382.85429208,-71.51956305,-42.762173610000005,56.79012345679012,set #1
1970-01-01 00:00:17.190693412,3.423454761505127,0.4893871545791626,1.45656156539917,127.60412652000001,291.7667844,-16.50516816,-117.96545124000001,121.04656668000001,-357.08024196,-84.00646019999999,82.686903,57.09876543209876,set #1
1970-01-01 00:00:17.201099429,3.4246158599853516,0.489612340927124,1.4506840705871582,90.73362597,150.99642012,-73.48624373999999,-193.97305473,-124.41334035,-382.42375626,-273.99634899,77.70982362000001,57.407407407407405,set #1
1970-01-01 00:00:17.210657392,3.4255735874176025,0.490001380443573,1.4445624351501465,53.181716640000005,38.08832976,-72.09104448,-174.53455344,-352.37115264,-386.01691439999996,-31.717944960000004,-104.58786,57.716049382716044,set #1
1970-01-01 00:00:17.221308026,3.4267475605010986,0.49028247594833374,1.4383509159088135,20.87388342,26.95230096,-98.65773294,-207.34421916,-119.85944334,-391.54477362,-282.27032808,13.67622594,58.02469135802469,set #1
1970-01-01 00:00:17.231183086,3.427995204925537,0.49044162034988403,1.4319311380386353,-348.72052566,-290.83746198,-259.85491506,-367.06360001999997,405.94763897999997,-380.37938406,-288.44596638,-49.56078582,58.33333333333333,set #1
1970-01-01 00:00:17.241383824,3.429236650466919,0.4905118942260742,1.4252933263778687,-184.32265488000002,-296.1190128,-224.60962992,-347.64259296,-51.34407408,-356.89987632000003,-239.47722240000002,-55.55666688,58.641975308641975,set #1
1970-01-01 00:00:17.257197414,3.430532455444336,0.4905186593532562,1.4184060096740723,155.3864091,137.19490278,-93.02643636,-201.63202644,-230.10436722,-398.89368402,-296.80278732,54.783563640000004,58.95061728395061,set #1
1970-01-01 00:00:17.260680947,3.4318408966064453,0.4904710054397583,1.411341905593872,-2.9474242200000003,-166.65816804,-222.24591831,-331.79151057,-249.41643246,-406.05331494,-429.85254819,-152.30225439,59.25925925925925,set #1
1970-01-01 00:00:17.270390782,3.4332058429718018,0.49027979373931885,1.4041309356689453,-111.78781769999999,-5.319351180000002,-155.92656612,-260.50245078,-211.48980996,-297.17062908,-92.71257528000001,-120.69017688,59.5679012345679,set #1
1970-01-01 00:00:17.280669007,3.4344801902770996,0.49005210399627686,1.3967616558074951,45.819523620000005,67.36829463000001,-169.85888712000002,-288.02614893000003,197.68364694,-266.10087269999997,-81.63928344,-5.1554724,59.87654320987654,set #1
1970-01-01 00:00:17.290422473,3.435767412185669,0.48978355526924133,1.38911771774292,59.97541719,-106.16496618,-91.92078051,-225.15266474999999,341.42433351,-273.62097594,-162.98593584000002,-35.1876447,60.18518518518518,set #1
1970-01-01 00:00:17.300353084,3.4370903968811035,0.489454060792923,1.3814388513565063,-166.98932484,-46.094059439999995,-171.007707,-304.43297664,90.75768156000001,-321.08175372,-89.46986412000001,-124.81108068,60.49382716049382,set #1
1970-01-01 00:00:17.310291801,3.4384853839874268,0.4889869689941406,1.3737126588821411,-183.93547887,-244.77646518,-163.25137686000002,-284.88592743,33.952274849999995,-362.13350277,-10.642273979999995,-127.41808365,60.80246913580247,set #1
1970-01-01 00:00:17.320956740,3.439901828765869,0.4883248209953308,1.3657257556915283,72.4823034,-183.0069384,-139.61021100000002,-266.9412954,-327.5909598,-455.0134836,-277.90724520000003,-170.6053362,61.11111111111111,set #1
1970-01-01 00:00:17.330406699,3.4412710666656494,0.4875994026660919,1.3576221466064453,-255.77188299,-332.04209883,-186.83332434000002,-365.90398182,-488.81180205000004,-426.81861261,-123.07581936000001,-104.24287419000001,61.41975308641975,set #1
1970-01-01 00:00:17.341191325,3.442669153213501,0.4867752492427826,1.3494864702224731,-170.40091575,-654.70155075,-207.28592625000002,-388.01709375,-121.72866225000001,-386.5795635,-181.39368000000002,-60.517548000000005,61.72839506172839,set #1
1970-01-01 00:00:17.350693259,3.4439949989318848,0.4858545958995819,1.3412566184997559,-117.70812768,74.32611303,-124.5524202,-310.635,108.77868807,-337.33070748,-230.17754526,-19.76819676,62.03703703703703,set #1
1970-01-01 00:00:17.360756669,3.4453036785125732,0.4848034083843231,1.3328614234924316,-245.97443013,-59.51801739,-197.18267907,-369.46651364999997,38.12636724,-361.70545905,-327.71430354,-191.17155915,62.34567901234568,set #1
1970-01-01 00:00:17.370365176,3.446442127227783,0.4837769567966461,1.3245140314102173,-0.9665385600000018,14.116886160000004,-134.9312796,-332.21658288000003,-29.221723439999998,-405.64386096,56.97591744,-315.8146524,62.654320987654316,set #1
1970-01-01 00:00:17.380655561,3.447556495666504,0.4826688766479492,1.3160011768341064,218.02671969,-77.70152871,-33.05923569,-237.141879,-27.0836943,-390.5633121,-63.027993599999995,-30.99697458,62.96296296296296,set #1
1970-01-01 00:00:17.390431199,3.448847770690918,0.48137080669403076,1.307563304901123,44.88427514999999,-142.92728774999998,-77.55606573,-296.34075315,-424.70309622,-404.13484371,-79.54166259,-50.005540260000004,63.2716049382716,set #1
1970-01-01 00:00:17.400136027,3.4501285552978516,0.4798877239227295,1.2991101741790771,-249.89676855,-348.35889894,-165.85176855,-360.83023392,27.169603889999998,-297.75357456,6.49947597,-78.00709293000001,63.58024691358025,set #1
1970-01-01 00:00:17.410578761,3.4514424800872803,0.47829198837280273,1.2905309200286865,-126.38277950999999,-260.78540319,-131.56080444,-315.60732567,-160.30276392,-296.44832099999996,-40.21521036,-108.63777951,63.888888888888886,set #1
1970-01-01 00:00:17.420327458,3.4528119564056396,0.476511687040329,1.2818857431411743,-167.13379644,-246.34214124,-105.27502752,-287.45459652,-240.06852246,-215.89104654,-60.13561554,-63.417694860000005,64.19753086419753,set #1
1970-01-01 00:00:17.430273805,3.454279661178589,0.4745326638221741,1.2732089757919312,-191.2393704,-227.7695433,-103.173642,-279.51404325,-96.21389505,-216.60779010000002,-389.0897283,-15.223944450000001,64.50617283950616,set #1
1970-01-01 00:00:17.441419158,3.455700635910034,0.4723833203315735,1.2644325494766235,-123.88674714,-327.17954178,-148.03521876,-302.27676882,-479.69821146000004,32.48421462,-51.18434567999999,-169.49949744,64.81481481481481,set #1
1970-01-01 00:00:17.450597797,3.4570541381835938,0.4701254963874817,1.2555056810379028,6.53496948,-544.5956942400001,-90.81571941,-245.41205675999998,-469.56690495,-95.08424016000001,-128.85517242,-158.12612984999998,65.12345679012346,set #1
1970-01-01 00:00:17.460541282,3.4584648609161377,0.4677378833293915,1.2464983463287354,-40.30070226,-129.99170106,-79.76749950000001,-203.25609798,-28.293002400000002,-65.22490182,-211.15460027999998,6.79460028,65.4320987654321,set #1
1970-01-01 00:00:17.470619712,3.4597697257995605,0.46515771746635437,1.237412929534912,-70.05238656,-445.99290528,-149.6643408,-262.94828352,-87.83793408000001,-114.10518912,-181.35579072,-219.28987392,65.74074074074073,set #1
1970-01-01 00:00:17.480534110,3.4610230922698975,0.4623907506465912,1.2282015085220337,175.5944307,-275.5028679,-114.9208593,-215.01328679999997,-273.4516434,88.06505369999999,3.5537970000000003,-13.291149299999999,66.04938271604938,set #1
1970-01-01 00:00:17.490442548,3.4621455669403076,0.4595091938972473,1.2188743352890015,398.33466036,-255.81402756,-55.4962512,-148.53300384,-119.65547099999999,575.85805992,-134.74078020000002,62.693064719999995,66.35802469135803,set #1
1970-01-01 00:00:17.500612292,3.463172197341919,0.4564855694770813,1.2094886302947998,373.81355543999996,-312.30151212000004,-121.65513048,-151.72153464000002,-90.13289376,1084.799235,-36.300459000000004,60.526953240000005,66.66666666666666,set #1
1970-01-01 00:00:17.510439191,3.4641454219818115,0.4532769024372101,1.2001357078552246,199.30838733000002,-444.00178407,-171.49986204,-237.45212166,-228.27385347,1553.97088002,-84.28737876,-64.12344900000001,66.9753086419753,set #1
1970-01-01 00:00:17.520649705,3.4652435779571533,0.449837863445282,1.1907373666763306,219.23723445,-471.0089826,-104.2421679,-125.5213284,-71.7237612,1633.92254415,126.66141540000001,-62.785398,67.28395061728395,set #1
1970-01-01 00:00:17.531158004,3.4662537574768066,0.44626203179359436,1.181340217590332,206.66269728,-476.86378896,-176.31892200000001,-327.32757564,-113.52202524,1531.72580964,6.84527064,-189.32230044,67.5925925925926,set #1
1970-01-01 00:00:17.540803704,3.4673912525177,0.44250553846359253,1.1719471216201782,-24.14821344,-367.70354712,-84.42922487999999,-340.73434824000003,-282.35424048,1448.25922488,117.85367568,-53.49210984,67.90123456790123,set #1
1970-01-01 00:00:17.550647531,3.468621253967285,0.4385594129562378,1.162630558013916,-175.55416905,-558.25995576,-93.28366476000001,-382.60323465000005,-481.35244794,1667.08364979,126.36360555,-165.85183953,68.20987654320987,set #1
1970-01-01 00:00:17.560565505,3.4700748920440674,0.43436792492866516,1.1533033847808838,-155.22,-500.2992111,-62.61117135,-351.95977245,-114.33443385000001,1786.1278266,124.74374639999999,-109.059366,68.51851851851852,set #1
1970-01-01 00:00:17.570500169,3.4715535640716553,0.43000704050064087,1.1439111232757568,62.40757965,-404.4280227,-48.74690223,-314.54257965000005,-8.37992493,1471.66467045,-109.58953863,-159.69570669,68.82716049382715,set #1
1970-01-01 00:00:17.580616508,3.4732987880706787,0.42543622851371765,1.1345103979110718,232.245,-364.28835144,-13.39829712,-292.42102032,478.49397024,1446.7956235200002,-131.34865848,-169.33404228,69.1358024691358,set #1
1970-01-01 00:00:17.590709004,3.47519588470459,0.4206399917602539,1.125132441520691,374.42324556,-323.00651448,-41.0396532,-352.3283244,540.39326016,1130.14721976,21.75280068,-108.96488148,69.44444444444444,set #1
1970-01-01 00:00:17.601046596,3.4770939350128174,0.4156431257724762,1.1157963275909424,502.68410087999996,-363.64496687999997,61.7905158,-5.304063960000001,-593.8057959600001,578.4649962,146.97972744,-64.87634868,69.75308641975309,set #1
1970-01-01 00:00:17.610366616,3.4789469242095947,0.41043439507484436,1.1064088344573975,375.02631192,-576.8091108,1.1729640000000003,-109.08588288000001,-177.1614811199999,-102.16810656,259.84907832,-35.70997248,70.06172839506172,set #1
1970-01-01 00:00:17.621125732,3.480621576309204,0.405102014541626,1.0969421863555908,-395.12716308,-384.66776088,84.93905784,141.35679636,865.01496276,1415.46187536,434.15557692,444.28308288,70.37037037037037,set #1
1970-01-01 00:00:17.630327258,3.482215404510498,0.39955639839172363,1.087529182434082,-834.0511725,-315.51987246,31.554459299999998,-37.3157655,-258.42175554,1268.849283,-817.04976288,909.35276406,70.67901234567901,set #1
1970-01-01 00:00:17.640906606,3.4834706783294678,0.3938274383544922,1.0780287981033325,-96.96119003999999,-268.77840444000003,33.49291608,-99.6871941,-710.57376936,769.7822628600001,790.82271684,-529.0092366,70.98765432098764,set #1
1970-01-01 00:00:17.650764499,3.4844276905059814,0.3879420757293701,1.0684282779693604,-73.23397731,-166.74591063,9.72293049,-144.26640852,-482.03345112,785.4545134800001,-122.732766,-162.61116027,71.29629629629629,set #1
1970-01-01 00:00:17.660270486,3.485232353210449,0.381870299577713,1.058762788772583,-59.60919666,-230.1480753,-194.6580753,-354.44310876,-917.54866944,756.88153554,-259.91957316,-283.41489540000003,71.60493827160494,set #1
1970-01-01 00:00:17.670835290,3.485806465148926,0.3756735920906067,1.0491915941238403,-149.25984060000002,-194.2772325,-6.7720731,-184.2542598,-1009.4309472000001,514.2679269,-910.8225165,260.7131202,71.91358024691358,set #1
1970-01-01 00:00:17.681150947,3.486330032348633,0.36935654282569885,1.0396432876586914,-139.69726134,-229.71361881,-98.20643196,-315.43643196,-266.48389638,646.5683682900001,1.4204739900000014,-383.13105285,72.22222222222221,set #1
1970-01-01 00:00:17.690380368,3.486745834350586,0.36295953392982483,1.030035376548767,-114.92558063999999,-296.99935200000004,-135.85159536,-343.72159536000004,209.30200512,227.21328864,-379.70088,-204.63276288,72.53086419753086,set #1
1970-01-01 00:00:17.700538907,3.4875717163085938,0.3563961684703827,1.0205329656600952,-159.58135167,-218.30218215000002,-90.42318636,-313.97583048,-57.23415633,140.33027112,-58.737627,-226.2658476,72.8395061728395,set #1
1970-01-01 00:00:17.710659299,3.487738847732544,0.3495873808860779,1.0108791589736938,-182.11602357,-189.20350644,-92.85448068,-307.05603864,670.41387777,-149.05936695,-113.97278568,-167.40956427,73.14814814814814,set #1
1970-01-01 00:00:17.720450912,3.4876785278320312,0.3427342474460602,1.0014076232910156,-314.28884448,-302.30387616,-204.49892736,-423.76178208,757.02776448,-329.26063872,98.94429792000001,-275.87468064,73.45679012345678,set #1
1970-01-01 00:00:17.730593953,3.4874203205108643,0.3357219696044922,0.9918273687362671,-91.35053304,-279.98754966,-159.65656668000003,-370.65709160999995,824.16355086,-551.85886704,97.63058369999999,-232.31701662,73.76543209876543,set #1
1970-01-01 00:00:17.741330419,3.486948251724243,0.328558087348938,0.9822269082069397,-10.797956130000001,-157.42907778,-150.30749253000002,-333.73294617,623.83562319,-602.26023429,342.93075765000003,-193.15911264,74.07407407407408,set #1
1970-01-01 00:00:17.750330482,3.4863407611846924,0.32124924659729004,0.9728057980537415,-113.74716678,-214.52941536,-152.53882254,-363.27104657999996,535.24343808,-634.0884505800001,613.98645126,-226.30370802000002,74.38271604938271,set #1
1970-01-01 00:00:17.760687146,3.485447645187378,0.3137171268463135,0.9633804559707642,-132.40389552,-216.52188246,-205.65090858,-424.08260076,1241.53475004,-540.48766044,270.38198148,-109.81184525999998,74.69135802469135,set #1
1970-01-01 00:00:17.770634685,3.4845590591430664,0.306101530790329,0.9540894627571106,-75.57796155,-139.58258145,-178.40198415,-420.073914,1406.7380496,-549.9021177000001,255.92274435,-144.92383035,75.0,set #1
1970-01-01 00:00:17.780467305,3.4835450649261475,0.29835355281829834,0.944894552230835,18.302949599999998,-106.32072165000001,-92.0969244,-265.55611875000005,799.3028140499999,-856.7541313500001,312.6960252,-201.2564853,75.30864197530863,set #1
1970-01-01 00:00:17.790600810,3.4823696613311768,0.29038071632385254,0.935793936252594,119.6638326,-63.681801300000004,-57.125523,-245.508159,839.1938139,-1219.3179687,176.6213787,-128.5255335,75.61728395061728,set #1
1970-01-01 00:00:17.801030192,3.481205940246582,0.28233349323272705,0.9269818663597107,-26.789393280000002,-126.4409952,-62.55593136,-312.00142896,707.4505401600001,-1571.15121072,120.12571584000001,-88.36140768000001,75.92592592592592,set #1
1970-01-01 00:00:17.810658488,3.480036973953247,0.27419033646583557,0.9183170795440674,-68.95862064,-156.0478452,-52.72499856,-291.8671548,-125.07774864000001,-1947.1626751200001,-59.00922456,-141.40732632,76.23456790123457,set #1
1970-01-01 00:00:17.820431266,3.4788362979888916,0.2659381330013275,0.9098120927810669,-40.2919374,-103.96442472,-51.526755539999996,-273.38476307999997,-510.06851610000007,-1961.7163324199998,83.29393488,-553.4622561,76.5432098765432,set #1
1970-01-01 00:00:17.830466065,3.4776315689086914,0.2575647830963135,0.9015685319900513,-2.810252249999998,-86.0452632,-32.5941447,-253.51323465,721.3676535,-1564.7416668,28.86619515,-209.27385959999998,76.85185185185185,set #1
1970-01-01 00:00:17.841109071,3.476283550262451,0.24907492101192474,0.8935129046440125,-1.73731155,-135.88341702000002,-78.41484924000001,-261.11216079,1167.34706049,-1411.86150729,-97.98859239,-246.91211064,77.1604938271605,set #1
1970-01-01 00:00:17.850478921,3.474834442138672,0.24054214358329773,0.8856942057609558,-118.53826842000001,-237.65532960000002,-149.38281969000002,-298.69165209000005,1892.39808186,-1319.57552025,-208.95882852,-137.56278393,77.46913580246913,set #1
1970-01-01 00:00:17.860466514,3.473341703414917,0.23199450969696045,0.8780641555786133,0.19946550000000052,-209.96097564000002,-84.64127334,-226.59948714,1493.15473476,-1352.37277266,-480.1087551,-173.13030852,77.77777777777777,set #1
1970-01-01 00:00:17.870456014,3.471864700317383,0.22349952161312103,0.8708371520042419,23.02890018,-196.37130006,-71.41060913999999,-446.60282861999997,191.23093626,-1205.68712628,-438.97058088,-93.9819543,78.08641975308642,set #1
1970-01-01 00:00:17.880437169,3.4703729152679443,0.21486857533454895,0.8638720512390137,67.96806237,-146.0101227,-53.995659509999996,-225.21082311,912.18812373,-1138.93876278,-336.79673313,-2.6327351700000037,78.39506172839506,set #1
1970-01-01 00:00:17.890705142,3.468939781188965,0.20637622475624084,0.857324481010437,-13.21968258,-161.20995696,-121.56030666000001,-204.57484398,849.8887464600001,-1307.39541426,-312.7309146,-51.64449966,78.7037037037037,set #1
1970-01-01 00:00:17.901163135,3.4673526287078857,0.19765692949295044,0.8507353663444519,-7.686847350000001,-165.7979427,-67.88564055,-124.07043285,413.71058819999996,-1508.7761325000001,-410.96003715,-86.65686704999999,79.01234567901234,set #1
1970-01-01 00:00:17.910424743,3.465806007385254,0.18903201818466187,0.8445894718170166,-57.139009200000004,-214.29254379,-51.1885023,-183.72135483,-209.93438738999998,-1509.96904149,-216.86648841,-106.45754379,79.32098765432099,set #1
1970-01-01 00:00:17.920424018,3.464379072189331,0.18059010803699493,0.8389147520065308,-37.56907986,-217.83031920000002,-57.13022874000001,-159.97069140000002,-1147.09398024,-1871.7810157800002,-89.29367538,-134.5261437,79.62962962962962,set #1
1970-01-01 00:00:17.931250606,3.4629580974578857,0.17183749377727509,0.8332703113555908,1.1846530799999995,-196.93298352,-15.2897745,-72.41910234,49.22886384,-1952.14878144,-158.40606678,-176.11525152000002,79.93827160493827,set #1
1970-01-01 00:00:17.940899406,3.461655378341675,0.16330267488956451,0.827940046787262,-3.2295868800000003,-204.7349421,-23.9815251,-106.30612356,264.4424133,-2105.7772008,-211.804749,-309.13956372,80.24691358024691,set #1
1970-01-01 00:00:17.952543292,3.4605648517608643,0.1548708975315094,0.8229609131813049,78.7217418,-121.97296176,110.98709699999999,-45.24760656,796.85459568,-2135.43405192,-442.66780739999996,-271.80810384,80.55555555555556,set #1
1970-01-01 00:00:17.960677419,3.4596662521362305,0.1466425359249115,0.818371057510376,65.40677793,-111.53370345,134.92112751,8.64290544,-66.06096276,-2294.29451862,-362.67483954,-314.16388107,80.86419753086419,set #1
1970-01-01 00:00:17.970340524,3.459087371826172,0.1382043957710266,0.8137802481651306,-8.298452759999996,-88.13308608,124.41180492,39.22715316,380.95755672,-2486.9356512,-283.19528172,-162.850545,81.17283950617283,set #1
1970-01-01 00:00:17.980690036,3.458623170852661,0.12998978793621063,0.809418797492981,6.713525520000001,-194.04082463999998,55.115895120000005,-21.886069919999997,-809.4810516,-2738.7691936799997,-88.16373696000001,-423.36452496,81.48148148148148,set #1
1970-01-01 00:00:17.990616117,3.4582955837249756,0.12186472862958908,0.805316686630249,50.881142520000004,-144.66871614,90.83485866000001,8.39514429,-700.76840691,-2762.8505712600004,51.29487636,-211.93357185,81.79012345679011,set #1
1970-01-01 00:00:18.001423154,3.4580283164978027,0.11367582529783249,0.8013952970504761,52.24911822,-114.77909819999999,213.00580158,218.32376748000001,296.07288594,-2537.5248997800004,-84.55253508,-242.42239475999997,82.09876543209876,set #1
1970-01-01 00:00:18.010942016,3.457714557647705,0.10546799004077911,0.797624945640564,-79.44693120000001,-174.54761376000002,55.886026560000005,-40.313856959999995,-17.713512960000003,-2763.3597888,-109.65122688,-332.201376,82.4074074074074,set #1
1970-01-01 00:00:18.020566497,3.4574506282806396,0.0972309485077858,0.7940559387207031,-34.535971079999996,-101.79651534,45.996051269999995,-49.83525066000001,171.0257406,-2822.2609338300003,81.54244917000001,-324.19032516000004,82.71604938271605,set #1
1970-01-01 00:00:18.030522142,3.457125425338745,0.08897674828767776,0.7907465100288391,-72.88902894,-139.13501082000002,-3.3200216399999998,-231.46861374000002,745.57778334,-2681.25642954,184.12777656,-411.71427102,83.02469135802468,set #1
1970-01-01 00:00:18.041136060,3.456833600997925,0.08078605681657791,0.7877382040023804,-108.3578184,-89.0023602,90.4005648,-355.9202478,-726.2949408000001,-2616.0737694,283.6631382,-371.7191556,83.33333333333333,set #1
1970-01-01 00:00:18.050299678,3.456571340560913,0.07264332473278046,0.7849236130714417,-123.28251624,-43.33126044,168.95063718,-365.27312094,-1817.7174405,-2837.53550262,357.38512992,-259.01614908,83.64197530864197,set #1
1970-01-01 00:00:18.060658250,3.456411123275757,0.06458108127117157,0.7822834849357605,-114.3133875,-56.951212500000004,132.376725,-414.88716750000003,-1705.5328875,-2244.0953925000003,172.46073,-326.9224725,83.9506172839506,set #1
1970-01-01 00:00:18.070590053,3.4563980102539062,0.056631118059158325,0.7799038290977478,-29.252067,5.036484960000001,165.86798553,-356.33994747,-1414.7063970000002,-2218.79125923,99.8368995,-312.8596536,84.25925925925925,set #1
1970-01-01 00:00:18.080438886,3.456483840942383,0.048715490847826004,0.7777272462844849,-85.04614872,-87.87581088,-22.052398680000003,-466.80626694,220.1334798,-1933.7564695800002,-237.54680742,-233.8155573,84.5679012345679,set #1
1970-01-01 00:00:18.090864453,3.456605911254883,0.040929581969976425,0.7756612300872803,-68.69667948,-26.4803994,22.670110709999996,-330.55365252,629.5973821800001,-2084.35637631,-107.17642923,-199.30920594,84.87654320987654,set #1
1970-01-01 00:00:18.100462470,3.4567697048187256,0.03328632190823555,0.773724377155304,-145.0951047,-56.7119397,-1.9603818000000004,-296.3962131,-50.1310836,-2269.9751724000002,-29.208897899999997,-173.553276,85.18518518518518,set #1
1970-01-01 00:00:18.110335860,3.456921100616455,0.025808941572904587,0.7719959020614624,-109.987956,-15.4917516,42.969817799999994,-198.8646348,-1583.4776646,-1678.7953650000002,48.501679200000005,-229.0247076,85.49382716049382,set #1
1970-01-01 00:00:18.120454822,3.457071542739868,0.018336061388254166,0.7704021334648132,-110.67546204,-5.182834799999999,41.98361388000001,-160.14091625999998,-261.18888042000003,-1377.36698892,162.8378739,-198.50068524,85.80246913580247,set #1
1970-01-01 00:00:18.130306754,3.457165479660034,0.010956354439258575,0.7689281105995178,-70.31743134,3.787325879999999,119.66159400000001,-46.61486622,-61.21943022000001,-495.29123514,209.5935504,-105.20926104,86.1111111111111,set #1
1970-01-01 00:00:18.140926871,3.4571101665496826,0.003692025551572442,0.7675361633300781,-100.92577365,-23.648733030000002,18.022891769999998,-72.94592838,-3223.1015590800002,-20.370174240000004,148.73590914000002,-117.81780465,86.41975308641975,set #1
1970-01-01 00:00:18.150858197,3.457000494003296,-0.003410198725759983,0.7663389444351196,-106.39618041,-36.88027551,-44.083451880000005,-38.18709453,-3669.26168466,685.2619683,7.94351181,-136.90632969,86.72839506172839,set #1
1970-01-01 00:00:18.160282645,3.456883430480957,-0.010204697959125042,0.7653340697288513,-32.598842250000004,8.1484299,-66.08596215,-28.6549926,1249.3908765,969.29830725,-34.06243815,-251.70724995,87.03703703703704,set #1
1970-01-01 00:00:18.170281682,3.456859827041626,-0.01689298078417778,0.7644164562225342,-57.931174080000005,-31.08430182,-71.38909518,8.09137758,2226.69084534,1646.3268127800002,-133.74775830000002,-194.22808704,87.34567901234567,set #1
1970-01-01 00:00:18.180832181,3.4568064212799072,-0.023167481645941734,0.7636274099349976,14.81595531,24.30685413,-71.77213406999999,22.996517700000002,4459.93338063,2203.5649560600004,27.945056490000002,-297.23135325,87.65432098765432,set #1
1970-01-01 00:00:18.190554891,3.4568471908569336,-0.029185926541686058,0.7630089521408081,10.03145832,46.42948908,49.72266741,72.23096478000001,1259.82412803,1647.7171912499998,-38.45672493,-195.29078868,87.96296296296296,set #1
1970-01-01 00:00:18.200276170,3.4570248126983643,-0.034957077354192734,0.7625715732574463,-55.267972500000006,-8.1131544,51.862551,105.42979589999999,27.640337399999993,1690.7142369,139.7941038,-104.97520410000001,88.2716049382716,set #1
1970-01-01 00:00:18.210459981,3.457289934158325,-0.04039284586906433,0.7622341513633728,-47.768400420000006,-14.96965977,52.42248843,65.91641433000001,645.4147791,1495.16635554,-29.64752583,-205.85757035999998,88.58024691358024,set #1
1970-01-01 00:00:18.220496211,3.457575798034668,-0.045633479952812195,0.7619149088859558,-22.80317832,30.59726748,68.17315908,104.97354152999999,324.38105115,1728.7842928199998,70.38317832,-146.40811496999999,88.88888888888889,set #1
1970-01-01 00:00:18.230630670,3.4580533504486084,-0.050563208758831024,0.7617636919021606,19.353851400000003,99.166548,71.6446068,103.6199814,-962.9504936999999,1627.2017229,129.34058670000002,-87.0209613,89.19753086419753,set #1
1970-01-01 00:00:18.242074285,3.4585459232330322,-0.05515924096107483,0.7617482542991638,-26.2225392,49.663653,-11.37356805,35.206902899999996,-870.9750231,1634.8522125,36.83822025,-155.5610394,89.50617283950616,set #1
1970-01-01 00:00:18.250387464,3.4590117931365967,-0.05941040441393852,0.7617400884628296,41.10555072,86.66221512000001,6.7994316,56.82221376,-600.61842672,1524.01390128,40.588884959999994,-145.23111096,89.81481481481481,set #1
1970-01-01 00:00:18.260404382,3.459462881088257,-0.06318378448486328,0.7617425322532654,72.46774002000001,86.2241796,78.86623836000001,59.9916408,-533.7226635,1539.1932816,14.6918265,-103.0268265,90.12345679012346,set #1
1970-01-01 00:00:18.270683799,3.4599969387054443,-0.06670387089252472,0.7618196606636047,77.47993227,85.44094143,26.36204025,27.339439140000003,-1152.5600229,1600.17065052,-38.00255628,-101.35511256,90.43209876543209,set #1
1970-01-01 00:00:18.280443702,3.46069598197937,-0.07003122568130493,0.7620059251785278,101.40632034,83.59023972,57.92132034,29.11937106,-624.4863619800001,1542.00677202,-25.0597464,-81.9,90.74074074074073,set #1
1970-01-01 00:00:18.290757690,3.461527109146118,-0.07300817966461182,0.7622548937797546,130.95749550000002,86.2845009,24.7512993,-1.4176305000000013,-408.3558141,1536.4125855,-55.2675045,-101.0819784,91.04938271604938,set #1
1970-01-01 00:00:18.300716195,3.462343454360962,-0.07558957487344742,0.762458860874176,140.37455055,83.7034419,16.387049250000004,-28.2897186,-33.84323475,1511.12889135,-101.5103778,-142.62870375,91.35802469135803,set #1
1970-01-01 00:00:18.310369287,3.4632105827331543,-0.07781285792589188,0.7627184391021729,90.01085963999999,66.68108772000001,11.78163597,-47.05096929,-251.24520174,1426.17759648,-99.67530261,-125.66128068,91.66666666666666,set #1
1970-01-01 00:00:18.320444617,3.464019536972046,-0.07976656407117844,0.7630063891410828,27.16253007,70.6109937,-6.91018614,-69.85441008000001,-150.30482960999998,1450.82341638,-121.46945733,-62.56573166999999,91.9753086419753,set #1
1970-01-01 00:00:18.331321750,3.4647746086120605,-0.08133736997842789,0.7632565498352051,5.8058325,86.8427625,21.015345,-55.346362500000005,359.54412,1377.427545,-102.7374075,-65.8623225,92.28395061728395,set #1
1970-01-01 00:00:18.340806518,3.4654226303100586,-0.08279603719711304,0.76337069272995,-12.87755898,79.34553354,4.546609860000004,-69.01247418,319.1343909,1311.0842729400001,-140.99095374,-79.49484426000001,92.59259259259258,set #1
1970-01-01 00:00:18.350269113,3.4659721851348877,-0.08390145748853683,0.7634745240211487,-5.9227494300000005,90.10968486,13.14431742,-43.75334652,452.99395635,1260.05839245,-3.887518440000008,-87.24190995000001,92.90123456790123,set #1
1970-01-01 00:00:18.360564504,3.4664201736450195,-0.08484530448913574,0.7635689377784729,40.36470672,67.41314112,13.59954024,-46.98249504,526.1166924,1200.32533296,27.294627360000003,-80.19472656,93.20987654320987,set #1
1970-01-01 00:00:18.370589528,3.4667625427246094,-0.08563762158155441,0.7635891437530518,81.81768504,73.90235424,14.58479256,-64.60890696,476.83890696,1173.23723088,-111.29432184,-99.22865472000001,93.51851851851852,set #1
1970-01-01 00:00:18.380332503,3.467013120651245,-0.0862727090716362,0.7635347247123718,71.00137278,75.34115277000001,34.26050511,-45.4935234,515.39957235,1108.30981872,-100.52650296,-58.317629370000006,93.82716049382715,set #1
1970-01-01 00:00:18.390545878,3.467205286026001,-0.08671774715185165,0.7634620666503906,9.9841443,65.58611982000001,28.199797080000003,-52.94690466,354.49574082,1059.81773352,-83.3313936,-32.18771634,94.1358024691358,set #1
1970-01-01 00:00:18.400360379,3.4673287868499756,-0.08703263103961945,0.7634153962135315,-27.860747070000002,56.646374460000004,32.728356569999995,-55.065816780000006,384.19336644,1017.37973103,-56.47273905,-20.48608575,94.44444444444444,set #1
1970-01-01 00:00:18.410826001,3.467406749725342,-0.08718056231737137,0.7633295655250549,-36.768440670000004,52.2287688,25.793786069999996,-59.45630028,345.95959164000004,957.15051198,-20.372054040000002,-40.11852702,94.75308641975307,set #1
1970-01-01 00:00:18.420486484,3.4674336910247803,-0.08712182193994522,0.7631867527961731,-25.96139208,51.80670924,40.396591560000005,-63.8177124,355.03698048,912.34167336,-55.754222160000005,-56.586934559999996,95.06172839506172,set #1
1970-01-01 00:00:18.430573974,3.4674360752105713,-0.0868808776140213,0.7630451321601868,-45.79720392,18.2872521,8.70929748,-91.33370532,323.41212773999996,871.25410476,-189.7857507,-74.59845042,95.37037037037037,set #1
1970-01-01 00:00:18.440847907,3.4673731327056885,-0.08644638955593109,0.7629382610321045,-8.91739485,32.09935833,51.17743332,-52.08731073,312.85636746,830.32559961,-194.58188295,-15.00465993,95.67901234567901,set #1
1970-01-01 00:00:18.451189075,3.467195749282837,-0.08578719198703766,0.7627856135368347,-23.7113175,25.205817,40.89429825,-62.829312,316.24086,778.94143275,-171.32305125,-75.30604575,95.98765432098764,set #1
1970-01-01 00:00:18.460723434,3.4670162200927734,-0.08490750938653946,0.7625985741615295,-94.71154368,-3.6013925999999996,30.97631706,-67.02634224,303.79723998000003,741.3661156200001,-113.61062076,-26.050822200000002,96.29629629629629,set #1
1970-01-01 00:00:18.470668111,3.466865301132202,-0.08380480110645294,0.7624227404594421,-9.6824052,58.17590493,35.22098736,-64.87957593,261.01915827,683.50676589,-40.78710753,1.6623987900000001,96.60493827160494,set #1
1970-01-01 00:00:18.480464730,3.466704845428467,-0.08245401829481125,0.7623074054718018,68.6246184,82.8110751,52.8838401,-58.6537341,-25.268267699999996,602.2845972,11.0769594,4.4316051000000005,96.91358024691357,set #1
1970-01-01 00:00:18.490992818,3.466500997543335,-0.08086863160133362,0.7621660828590393,-3.8859950999999997,-15.090626460000001,52.286277420000005,-60.04319412,-301.79344026,598.7424323399999,77.72163438000001,34.3910931,97.22222222222221,set #1
1970-01-01 00:00:18.500680003,3.466139793395996,-0.07908301800489426,0.761958122253418,63.07074618,43.51603152,37.82209587,-81.56471466,-649.91175561,514.11362106,-218.83710303,4.9840490699999975,97.53086419753086,set #1
1970-01-01 00:00:18.510417256,3.4657952785491943,-0.0770483911037445,0.7617442607879639,73.01384688,79.63364136,88.49166144,-27.523685280000002,-363.30816912,545.19048792,-241.52170536,110.14079856000001,97.8395061728395,set #1
1970-01-01 00:00:18.520751748,3.46541690826416,-0.07467116415500641,0.7615750432014465,-42.18818604,-26.30591184,-7.407273120000001,-124.68682043999999,-229.10863872,574.31182692,-315.5427366,4.739991360000001,98.14814814814814,set #1
1970-01-01 00:00:18.530998263,3.4649691581726074,-0.071932353079319,0.7614095211029053,-70.72809588,-141.72096704999998,16.57567743,-96.53109687,-110.48980527,517.9559037900001,-107.67522636,-49.34516145,98.45679012345678,set #1
1970-01-01 00:00:18.541352067,3.4644081592559814,-0.06880336999893188,0.7611821293830872,-27.732572010000005,-42.42332718,55.3235709,-41.573040989999996,-35.84849151,519.99344904,55.08926514,53.891550960000004,98.76543209876543,set #1
1970-01-01 00:00:18.550542626,3.463888168334961,-0.06526466459035873,0.7609764933586121,-61.17612384,6.295696680000001,46.97837586000001,-43.119268919999996,-132.14034834,441.60267918,210.78917574000002,-9.252124440000001,99.07407407407406,set #1
1970-01-01 00:00:18.560589109,3.4633023738861084,-0.06127596274018288,0.7608193755149841,-258.14139858,-334.47134487,-71.64995331,-146.83500351,-417.7826757,314.38440813,162.77866215,7.44281577,99.38271604938271,set #1
1970-01-01 00:00:18.571200643,3.462794065475464,-0.05691635236144066,0.7606943249702454,-114.18083547,-106.8750462,-3.7597985100000004,-80.15126925000001,-628.43145534,287.29569687,264.69325077,-23.67450462,99.69135802469135,set #1
1970-01-01 00:00:18.580401216,3.46242356300354,-0.05193396657705307,0.7606280446052551,161.82804768,75.47683104000001,75.27591552,8.88642144,-993.7277001599999,296.86705152,530.48475168,75.53256672,100.0,set #1
1970-01-01 00:00:18.580401216,3.46242356300354,-0.05193396657705307,0.7606280446052551,161.82804768,75.47683104000001,75.27591552,8.88642144,-993.7277001599999,296.86705152,530.48475168,75.53256672,0.0,set #2
1970-01-01 00:00:18.590829406,3.462222099304199,-0.04659147560596466,0.7606291770935059,177.03022818,89.9753166,66.48581004,-9.5893668,-819.6311409,338.77013976,446.1487992,0.8561038200000013,0.4149377593360996,set #2
1970-01-01 00:00:18.600300345,3.4621613025665283,-0.04058179631829262,0.7607930302619934,63.45959295,-35.2288209,24.769709250000002,-39.1557309,-692.49999195,256.01549024999997,109.8188871,-8.139966900000001,0.8298755186721992,set #2
1970-01-01 00:00:18.610909972,3.4622530937194824,-0.03406461700797081,0.7611002326011658,-193.94831040000003,-124.7821926,3.1383534000000015,-78.71087016,-198.41865264,215.09902752,-320.49033276,105.0661092,1.2448132780082988,set #2
1970-01-01 00:00:18.620724711,3.4625954627990723,-0.02700134366750717,0.7615842819213867,-104.7978477,-105.14191545,62.62148802000001,-20.73340347,-262.28063316,57.84483393,-322.85265051000005,115.20357615,1.6597510373443984,set #2
1970-01-01 00:00:18.630552325,3.4631431102752686,-0.019393078982830048,0.7622719407081604,-109.834803,130.07635875,189.95951325000001,97.03518825,-720.9059325000001,30.7193055,107.32026825,243.94725225000002,2.074688796680498,set #2
1970-01-01 00:00:18.641208682,3.46388840675354,-0.011127942241728306,0.7632691860198975,-102.6289485,-97.18526609999999,104.9946495,6.44703462,-489.22155047999996,-55.52094678,-59.287546500000005,-7.6623167400000005,2.4896265560165975,set #2
1970-01-01 00:00:18.650600228,3.4648399353027344,-0.0024583705235272646,0.7645246386528015,-84.15337476,-200.35340364,69.57546648,19.876217399999998,-216.8408892,-98.8556634,-246.12642132,-139.85453352,2.9045643153526974,set #2
1970-01-01 00:00:18.660776649,3.466049909591675,0.006823934614658356,0.7660605907440186,-183.77004438,-366.38208945,30.43883388,-110.15714229,-299.41285374,-319.61883837,-477.75591435,-169.67072889000002,3.319502074688797,set #2
1970-01-01 00:00:18.670885596,3.4675467014312744,0.017442118376493454,0.7677464485168457,86.7155952,-53.23648668,122.90791812,3.02740776,-239.63226768,-551.01408024,-437.52917988,-316.578951,3.7344398340248963,set #2
1970-01-01 00:00:18.680401597,3.469062566757202,0.02750924974679947,0.7701483368873596,250.89960285,180.21315624000002,259.92565755000004,111.00162021000001,-1357.17398739,-1114.0404050099999,-442.43320094999996,-294.76626777,4.149377593360996,set #2
1970-01-01 00:00:18.690859113,3.4706568717956543,0.038021404296159744,0.7728744745254517,-71.35902969,-212.08680987,67.85135175,-48.547512780000005,-301.03244691,-1059.21753834,-486.44200059,-368.4798663,4.564315352697096,set #2
1970-01-01 00:00:18.700765166,3.472285270690918,0.04897049441933632,0.7759391069412231,160.88266038,10.582673400000001,130.11231792,10.128170520000001,1789.3489465799998,-657.30720666,-441.5959899,-168.99670086,4.979253112033195,set #2
1970-01-01 00:00:18.710709844,3.4739856719970703,0.0603039488196373,0.7793475389480591,-6.9684123599999985,-88.84617456000001,154.0076226,-38.7544404,733.66382544,-671.6032658400001,-134.15284584,-99.39545460000001,5.394190871369295,set #2
1970-01-01 00:00:18.720561299,3.4757537841796875,0.07273071259260178,0.7830851078033447,-71.57519226000001,-224.47909887,179.13103142999998,-59.56837848000001,282.95354334,-714.24700425,-236.84616072,-187.80321105000002,5.809128630705395,set #2
1970-01-01 00:00:18.730836902,3.4775168895721436,0.08430595695972443,0.7872843742370605,-146.50176138,-257.97593406000004,14.855358959999998,-197.38938882000002,-256.86890034,-781.37237256,-169.23077262,-401.28494796,6.224066390041494,set #2
1970-01-01 00:00:18.741109166,3.4792118072509766,0.09622505307197571,0.7917373180389404,112.67847162,-100.9710312,425.5924101,250.61274264000002,-1001.20349004,-1509.9239688,99.90244368,-303.44531412,6.639004149377594,set #2
1970-01-01 00:00:18.750512633,3.4807863235473633,0.10912708938121796,0.7965173721313477,408.8512077,235.81048686,335.4430443,317.53338279,-1598.51457168,-2277.75221271,77.16398664,-84.14586921,7.053941908713694,set #2
1970-01-01 00:00:18.760355268,3.4826018810272217,0.12133467942476273,0.8018237948417664,496.34297388000005,60.01486763999999,-36.33134856,197.23265796,-881.67299532,-2364.80082852,-159.51078936,-235.36442592,7.468879668049793,set #2
1970-01-01 00:00:18.770276103,3.4841439723968506,0.13421402871608734,0.8073626756668091,95.23957365,-223.4183796,-231.18626232,200.32923456,-427.31413374000005,-2369.15808753,88.01067366,-196.45290171,7.8838174273858925,set #2
1970-01-01 00:00:18.780668531,3.4857895374298096,0.1469268798828125,0.8133347034454346,-2.23122549,-365.46794856,-125.60864550000001,68.14472106,808.66618365,-2134.61178255,290.84838666,-262.59622467,8.298755186721992,set #2
1970-01-01 00:00:18.791234765,3.487478256225586,0.1596500277519226,0.8197370171546936,486.17494769999996,134.4149859,87.42292455,7.4799406500000005,1765.42282995,-1680.7028511,463.23409860000004,-47.066079450000004,8.713692946058092,set #2
1970-01-01 00:00:18.800570521,3.489156484603882,0.17237696051597595,0.8265845775604248,-217.94805825,-220.57275201000002,-452.79397059,-525.79904715,1998.92245215,-1459.5170183100001,464.67756699,-333.04736283,9.128630705394192,set #2
1970-01-01 00:00:18.810573611,3.490910768508911,0.18488334119319916,0.8339254856109619,-175.69282068,73.84976274,132.37038048000002,-73.67691747,2170.7968834499998,-1199.05283628,956.4901928400001,-347.94768645,9.54356846473029,set #2
1970-01-01 00:00:18.820513997,3.4923617839813232,0.19770877063274384,0.8415643572807312,409.62677847,782.2863445800001,670.80545883,539.41457583,1763.72922648,-1080.21265872,486.31239812999996,303.46276545000006,9.95850622406639,set #2
1970-01-01 00:00:18.830381427,3.494025707244873,0.2101835012435913,0.8497229814529419,-116.48416416,221.7205224,16.165564349999997,-44.19706902,1131.20931534,-932.46380877,-70.51694871000001,66.79640019,10.37344398340249,set #2
1970-01-01 00:00:18.841565404,3.495481014251709,0.22288525104522705,0.8583019375801086,145.88176044,487.8855618,216.48958968,139.97808864,581.7564246,-682.2577319999999,178.70430864,224.61951408,10.78838174273859,set #2
1970-01-01 00:00:18.850607905,3.4969685077667236,0.23513109982013702,0.8672663569450378,152.88973245000003,351.7692165,253.81462664999998,79.94290785000001,-268.33657695,-477.44463585,184.2575943,75.21666359999999,11.20331950207469,set #2
1970-01-01 00:00:18.860209498,3.498332977294922,0.247334286570549,0.876617431640625,77.06626979999999,245.87197440000003,194.76022722,24.684241919999998,137.08277544,-70.81864998,210.15677202,73.93525776000001,11.61825726141079,set #2
1970-01-01 00:00:18.870253596,3.4994168281555176,0.2595737874507904,0.8863041400909424,84.0549996,217.61878008000002,290.3039022,67.87475604000001,74.11280448,243.00439020000002,229.34987712,225.76426860000004,12.033195020746888,set #2
1970-01-01 00:00:18.880329404,3.500490427017212,0.2714080214500427,0.8963923454284668,19.00834416,-314.69859096,74.58168900000001,-121.63645416,225.42356772,154.7494182,-78.39345696,335.54494428000004,12.448132780082988,set #2
1970-01-01 00:00:18.890677724,3.5014007091522217,0.28298887610435486,0.9067842364311218,228.61677072,38.960337,-109.40416188,-259.11420912,1012.42980228,333.35679311999996,-174.57957972,208.9394268,12.863070539419088,set #2
1970-01-01 00:00:18.900605712,3.5019237995147705,0.2945525050163269,0.9175552129745483,174.14745504,-17.088371040000006,187.53013344,-6.9628353600000015,708.09875136,262.66283472000003,768.12959808,-62.845848000000004,13.278008298755188,set #2
1970-01-01 00:00:18.910286460,3.5026259422302246,0.30563655495643616,0.9284878969192505,1245.2354538,797.3855994,655.6754412,509.6568984,-158.92161480000001,439.0446294,428.5019778,204.6279144,13.692946058091287,set #2
1970-01-01 00:00:18.920532737,3.5032200813293457,0.3165459632873535,0.9397362470626831,1464.38245902,813.1495694399999,544.48959591,482.39371245,-1005.74371755,108.1112799,-305.32953945,783.50992824,14.107883817427387,set #2
1970-01-01 00:00:18.930539880,3.5037178993225098,0.3271389603614807,0.9512230157852173,-134.6893236,-85.78847160000001,21.235422,-86.0779608,-817.6574016,150.53246520000002,-511.54036440000004,768.6013608,14.522821576763487,set #2
1970-01-01 00:00:18.940896068,3.5041565895080566,0.3374063968658447,0.9628953337669373,-1107.1145139599998,50.61569916,422.4489516,227.20575072,-753.69792108,-271.0796322,-1707.32811288,1703.15855424,14.937759336099585,set #2
1970-01-01 00:00:18.951092753,3.5046064853668213,0.34734442830085754,0.97475665807724,-801.46553721,-124.25187645,3.069610830000002,-115.94536122,159.24986025,-107.22511487999999,163.29224691000002,276.95109195,15.352697095435685,set #2
1970-01-01 00:00:18.960543189,3.5050363540649414,0.35685044527053833,0.986761748790741,-157.71233946,-3.9791590800000005,-74.25942069,-98.37851088,404.88847737,-290.55004329,-89.46027441,209.10988293,15.767634854771785,set #2
1970-01-01 00:00:18.970358167,3.5054352283477783,0.3659282326698303,0.9988532066345215,-163.14400596000002,184.97962080000002,70.94644908000001,-64.95797061,1148.34776745,-40.771996200000004,-1048.04852451,618.2047115400001,16.182572614107883,set #2
1970-01-01 00:00:18.980412994,3.5057435035705566,0.37457722425460815,1.010927677154541,-54.33164802,361.05228432,-20.631306539999997,-143.26096824,961.85809746,189.49832069999997,-704.09460576,492.87954690000004,16.597510373443985,set #2
1970-01-01 00:00:18.991058621,3.5058724880218506,0.3828315734863281,1.0229324102401733,-228.59245578,463.12360458,-42.33650187,-211.59782709,649.99687272,-253.59683739000002,-258.15059946,137.39835681,17.012448132780083,set #2
1970-01-01 00:00:19.000392232,3.5059432983398438,0.3906159996986389,1.034841775894165,-501.52188216,215.01713999999998,-510.21195576,-568.20119928,193.43680824,-212.80623624,-670.74154992,252.11068272,17.427385892116185,set #2
1970-01-01 00:00:19.010453496,3.5059499740600586,0.39795151352882385,1.046663522720337,552.20784528,566.49738288,327.43162920000003,289.04274672,-531.85619448,-35.8758816,-554.09854968,527.32514952,17.842323651452283,set #2
1970-01-01 00:00:19.021403585,3.505751609802246,0.40497252345085144,1.0583912134170532,1225.79521155,584.0934255000001,466.71084135,591.4082031,1.9333704000000003,90.3847776,-514.5341389499999,589.78560225,18.257261410788384,set #2
1970-01-01 00:00:19.030441079,3.5051991939544678,0.41142553091049194,1.0698721408843994,835.2246766500001,184.30868001,767.7667744500001,836.0805421800001,62.60081607,99.95618841000001,-286.04331327,709.87586553,18.672199170124482,set #2
1970-01-01 00:00:19.041511808,3.5050323009490967,0.41775986552238464,1.0815248489379883,932.71986912,-91.94601312,420.52863840000003,535.91020704,-570.59287584,43.94392704,-865.7353785600001,574.2059232,19.08713692946058,set #2
1970-01-01 00:00:19.050485406,3.5045478343963623,0.42353081703186035,1.0929312705993652,520.73785686,299.42103048,354.7661247,635.19765036,-579.55286688,232.61668404,-26.330206499999996,330.85463112,19.502074688796682,set #2
1970-01-01 00:00:19.060232911,3.5044031143188477,0.42925703525543213,1.1045409440994263,1070.61682845,536.57054529,531.58436604,674.8106609399999,-780.24273717,265.54754109,150.74390643,466.73330769,19.91701244813278,set #2
1970-01-01 00:00:19.070726667,3.5042495727539062,0.4347204864025116,1.11614990234375,968.17502925,865.3840143000001,666.06803835,821.1268392600001,158.28536178,342.64101495,226.6420299,485.77876191,20.331950207468882,set #2
1970-01-01 00:00:19.080520902,3.5038368701934814,0.4397021234035492,1.1275423765182495,305.46416862,60.69238968,-196.70524302,-56.1327702,751.5859806,506.03893625999996,7.9398657,77.79339906,20.74688796680498,set #2
1970-01-01 00:00:19.090534005,3.5037267208099365,0.44464731216430664,1.1391236782073975,-828.2136369000001,-871.4766196500001,-1145.53757565,-994.5510861,633.84282195,937.5693327,-575.686176,53.17360035,21.161825726141082,set #2
1970-01-01 00:00:19.100515876,3.5035758018493652,0.449349045753479,1.1506667137145996,349.48975308,417.85382184,677.0402199600001,712.82100708,363.06836591999996,882.49264116,91.51632984,494.35319232,21.57676348547718,set #2
1970-01-01 00:00:19.110243592,3.5033724308013916,0.45380648970603943,1.1621313095092773,-696.24548136,-380.47533264,-124.08018480000001,-152.03509152,328.25949312,675.06983544,-69.96467088,266.52497976,21.991701244813278,set #2
1970-01-01 00:00:19.120474610,3.5030601024627686,0.45783570408821106,1.1734285354614258,227.45089380000002,230.6294679,517.6077894000001,407.2918317,-545.9752896,410.7171822,284.11493759999996,453.5639784,22.40663900414938,set #2
1970-01-01 00:00:19.130568061,3.50284743309021,0.46177753806114197,1.1848088502883911,-374.33875557000005,-567.72643239,-191.82276593999998,-236.96993073,-1404.92785992,248.71486146,136.77435915,148.38152394,22.821576763485478,set #2
1970-01-01 00:00:19.141994748,3.5025863647460938,0.46547481417655945,1.1961510181427002,730.13160168,371.44630536,373.41637476,435.00401568,126.9970338,181.8637236,178.34960832000002,629.1425166,23.23651452282158,set #2
1970-01-01 00:00:19.150391612,3.502286434173584,0.46894457936286926,1.2074700593948364,1307.5539516000001,766.02683508,997.2490444800001,1049.4041063999998,536.26931748,185.53889952,714.03541092,809.39061216,23.651452282157678,set #2
1970-01-01 00:00:19.160488877,3.5019192695617676,0.4721928834915161,1.2187097072601318,397.63557444,-297.85793154000004,-230.92504889999998,66.22913193,-483.09287480999996,32.01532971,131.08771767,685.9253271,24.066390041493776,set #2
1970-01-01 00:00:19.170580421,3.501451253890991,0.47518429160118103,1.2298651933670044,1018.2085383599999,-231.13880634,221.4259866,585.6519123,-1239.53038365,-808.56959196,156.70711329,739.7716930500001,24.481327800829877,set #2
1970-01-01 00:00:19.180694614,3.500798225402832,0.4779978096485138,1.240876317024231,2802.6429974400003,327.46640628,-115.0121895,321.80685498,-1545.04395318,-3062.1723826200005,241.75021805999998,40.09844202,24.896265560165975,set #2
1970-01-01 00:00:19.190600905,3.500213861465454,0.4805988669395447,1.2518099546432495,3616.6122369,522.00511935,382.582941,1159.94647275,-1150.7193477,-2905.1779380000003,466.88099835,290.23235475,25.311203319502077,set #2
1970-01-01 00:00:19.200634990,3.4994049072265625,0.48275163769721985,1.2623957395553589,2064.9141747000003,20.6791572,-420.63189869999997,151.9360245,-334.485489,-861.8665926,57.614317799999995,-36.9570279,25.726141078838175,set #2
1970-01-01 00:00:19.210380588,3.498753070831299,0.48493635654449463,1.2730295658111572,508.36531356,1131.01335048,418.57350756,895.79034012,-977.56162296,-90.78903132,296.41287936,319.33774860000005,26.141078838174277,set #2
1970-01-01 00:00:19.220502648,3.4980320930480957,0.4869426190853119,1.2836294174194336,-1334.63060328,-260.5625256,-104.90173824,100.61502048,-512.24416152,661.4567076,-255.57337416000001,20.51940696,26.556016597510375,set #2
1970-01-01 00:00:19.230546985,3.4972715377807617,0.48875197768211365,1.2940133810043335,-869.32384695,794.8942521,350.47719525,570.5999637,316.8883107,1407.02623035,391.35861374999996,343.5161067,26.970954356846473,set #2
1970-01-01 00:00:19.241249833,3.496471405029297,0.49036040902137756,1.3042622804641724,-517.95282591,237.06607197,640.00875744,576.5270741100001,260.84265518999996,1741.83274551,-155.0009019,613.97033061,27.385892116182575,set #2
1970-01-01 00:00:19.250980172,3.495631694793701,0.4917834997177124,1.3143525123596191,-1229.1918631199999,245.01177012,261.51754668,427.61245332,363.35496911999996,2163.21027936,-72.29059032,469.00900644,27.800829875518673,set #2
1970-01-01 00:00:19.260747943,3.4947245121002197,0.4930311143398285,1.3242969512939453,-1745.6805416700001,-535.9075058999999,261.97121067,456.75899178,1841.46361854,2357.7646836900003,679.2892899,409.534554,28.215767634854775,set #2
1970-01-01 00:00:19.270789895,3.493807315826416,0.4940893054008484,1.333978533744812,-2022.7579281,37.46759055000001,145.19802570000002,328.4917818,108.87505395,2772.8854647000003,463.05554685000004,445.79994224999996,28.630705394190873,set #2
1970-01-01 00:00:19.281189475,3.4928624629974365,0.49501991271972656,1.3435171842575073,-1769.40321675,691.4615565,435.64227525,741.2504092500001,-495.3653055,2732.091336,485.9709075,582.6559245000001,29.045643153526974,set #2
1970-01-01 00:00:19.297792707,3.491905927658081,0.49576643109321594,1.3528459072113037,-478.23443109,812.1200392500001,454.22943579,1089.39235353,68.19553845,2575.1779481999997,-32.26238808,501.48490391999997,29.460580912863072,set #2
1970-01-01 00:00:19.300423417,3.4908998012542725,0.49636727571487427,1.3619717359542847,-1321.6132230599999,548.6041898999999,28.876908060000005,694.81770384,-99.14837828999998,2560.27674981,-151.04401884,328.42538508,29.87551867219917,set #2
1970-01-01 00:00:19.310440812,3.489879846572876,0.49681147933006287,1.3708367347717285,-1229.5062546,-651.77893092,-293.53525188000003,456.17841516,-48.64024307999999,2777.5190804400004,258.01399728,-32.68766592,30.290456431535272,set #2
1970-01-01 00:00:19.320890937,3.4888882637023926,0.4971221089363098,1.379443645477295,-636.9224199,266.93403204,187.76013828,841.61221248,81.38778414,2798.13647217,458.95780944,164.90260371,30.70539419087137,set #2
1970-01-01 00:00:19.330872092,3.487858533859253,0.497305691242218,1.387853741645813,-1191.11474664,-34.2701502,104.08425768000001,479.32333488000006,820.2561073200001,2613.7391545200003,215.43401724,340.38360096,31.120331950207472,set #2
1970-01-01 00:00:19.340636525,3.4868688583374023,0.49737465381622314,1.3959907293319702,-800.7183795,-228.255066,-21.075190499999998,346.6685235,399.9062925,2550.9706365,265.01399925000004,146.3080905,31.53526970954357,set #2
1970-01-01 00:00:19.351615701,3.485851764678955,0.49736452102661133,1.4038722515106201,-1086.00465636,-309.04075605,-192.83547192,142.09397553000002,487.73858913000004,2378.18749974,152.60137893,247.48896471,31.95020746887967,set #2
1970-01-01 00:00:19.360681329,3.4847683906555176,0.49703001976013184,1.411225438117981,-755.7271971600001,124.41949299,42.74177466,286.24357749,470.58770382,2160.58814088,234.08294364,80.17374651,32.365145228215766,set #2
1970-01-01 00:00:19.370741401,3.4838719367980957,0.4968658983707428,1.4185545444488525,-496.30150596,228.37297158,435.24105885000006,604.61336442,1082.85904662,2112.91415634,295.90832661,430.93085958,32.78008298755187,set #2
1970-01-01 00:00:19.381017003,3.4827606678009033,0.49647900462150574,1.4253947734832764,186.70397031000002,602.4074643600001,750.65636061,894.40823355,527.42195064,2160.2605713,426.49363575,219.02128794,33.19502074688797,set #2
1970-01-01 00:00:19.391066585,3.4818203449249268,0.4960692524909973,1.431997299194336,113.94294015,435.6456273,432.08799075,757.97600385,488.90084685,2041.7921082,189.24240659999998,269.5890951,33.60995850622407,set #2
1970-01-01 00:00:19.400651488,3.480786085128784,0.49567773938179016,1.4382355213165283,-620.07888384,-103.65609696,-321.90486432,-7.581575039999997,121.22882304,1859.1662169600002,-10.28787552,-6.708936,34.024896265560166,set #2
1970-01-01 00:00:19.420495305,3.4798567295074463,0.4952462613582611,1.4442263841629028,-906.68869395,-735.3184020000001,-655.21650675,-308.99444745,737.24922375,1674.7268265,-180.3686118,8.836319699999997,34.43983402489627,set #2
1970-01-01 00:00:19.420499597,3.4788661003112793,0.4948365390300751,1.4498815536499023,-905.85342783,-736.5905508000001,-654.4883689500001,-308.71156172999997,737.29107075,1674.8439981,-179.83966571999997,9.315049379999998,34.85477178423237,set #2
1970-01-01 00:00:19.430303607,3.477891445159912,0.49440574645996094,1.4551466703414917,-320.99265471,-119.73151203,-123.56320119,228.25550475,178.05769644,1537.83761742,82.12861449,2.73664521,35.26970954356847,set #2
1970-01-01 00:00:19.440373216,3.4769699573516846,0.49396440386772156,1.4600982666015625,-233.33958336,605.52490752,205.00863552000004,525.43900032,-274.91790144,1313.06580288,274.17129792000003,119.6360256,35.684647302904565,set #2
1970-01-01 00:00:19.450330291,3.476161479949951,0.49352341890335083,1.4646579027175903,0.8141507400000001,-191.64440061,-241.52957946,138.07568268,81.47161932,1269.75390087,115.89118242,7.599325499999999,36.09958506224066,set #2
1970-01-01 00:00:19.460417543,3.475353717803955,0.493093878030777,1.4688377380371094,-1812.7644619500002,-1598.57579115,-1405.47592458,-1091.8317536099999,23.081215559999997,1071.18431043,-373.92303117,-400.01472108,36.51452282157677,set #2
1970-01-01 00:00:19.470618997,3.4746243953704834,0.49267956614494324,1.4726648330688477,36.1224084,123.31384416000002,-164.36966091,251.26442562000003,259.22055276,1003.01569095,64.67734923,5.44624548,36.92946058091287,set #2
1970-01-01 00:00:19.480373178,3.4738895893096924,0.4923156201839447,1.4760782718658447,300.8264103,83.54750976,69.22668012,425.07609923999996,167.34468894000003,897.69529044,81.29906616,19.63643136,37.344398340248965,set #2
1970-01-01 00:00:19.490678821,3.473093271255493,0.4920200705528259,1.4790560007095337,220.71369021,362.78294754,63.50843577,405.19637339999997,221.25253449000002,827.36669145,109.03948575,46.73025981,37.75933609958506,set #2
1970-01-01 00:00:19.500529561,3.472458839416504,0.4917006492614746,1.4818015098571777,-1058.4379755300001,-1285.24667817,-1174.2530904,-789.1880575800001,91.15624089,664.81363338,-218.47411989,-322.11694242,38.17427385892116,set #2
1970-01-01 00:00:19.510338101,3.471766233444214,0.4914129078388214,1.4842143058776855,68.09938941,466.97052714,94.44646614000001,370.78377882,-175.84561059,647.34979647,118.32013869,31.777169190000002,38.589211618257266,set #2
1970-01-01 00:00:19.520715509,3.47111177444458,0.4911918640136719,1.4862887859344482,538.16792523,983.5427214599999,443.87828004000005,695.4214144800001,-610.60139985,620.20445877,279.84300279,177.75335760000002,39.004149377593365,set #2
1970-01-01 00:00:19.530535731,3.470449924468994,0.4909791350364685,1.4881428480148315,274.00998846,412.08428859,294.20291004,528.6762468000001,-77.90701737,472.93347816,363.28609511999997,286.26100386,39.41908713692946,set #2
1970-01-01 00:00:19.541366134,3.4697623252868652,0.49075204133987427,1.48984694480896,-145.27581822000002,-286.6673823,-360.67133154,-129.39646589999998,1276.43539218,629.44775322,-16.9593684,-96.62416686,39.83402489626556,set #2
1970-01-01 00:00:19.551363978,3.469194173812866,0.4905095398426056,1.4913883209228516,-385.99029222,-399.96151494000003,-307.19016666000005,-95.52079445999999,738.54335724,411.44385126000003,1.7692630799999995,-205.36391928,40.24896265560166,set #2
1970-01-01 00:00:19.561602149,3.468543529510498,0.4903702139854431,1.4925791025161743,64.81302789,255.76837026,106.9270488,271.39585980000004,267.19626336,401.3016189,108.98175678,49.06647018,40.663900414937764,set #2
1970-01-01 00:00:19.571386132,3.4679465293884277,0.49025341868400574,1.493683099746704,-265.38229379999996,-242.49040140000002,-297.12063732,-168.88632384,339.98945604,245.73300492,-54.15366684,-125.85016548,41.07883817427386,set #2
1970-01-01 00:00:19.581522021,3.4673635959625244,0.49017074704170227,1.4945714473724365,298.37829294000005,236.55474609,144.60263415,348.93787266000004,107.36517792000001,209.74523466,189.49910655000002,27.175753020000002,41.49377593360996,set #2
1970-01-01 00:00:19.591645036,3.4667696952819824,0.490152508020401,1.4952882528305054,288.88747524,438.6386082,398.51371872,472.93947012,183.35504928,158.06301732,219.19363284,106.51932252,41.90871369294606,set #2
1970-01-01 00:00:19.601545844,3.46614933013916,0.49015507102012634,1.495877981185913,150.40113348,-459.67080744,74.94750275999999,157.91189856,-17.87633796,94.86607884,52.086719880000004,-129.0084588,42.323651452282164,set #2
1970-01-01 00:00:19.611393962,3.465686798095703,0.4901501536369324,1.49634850025177,244.54090128,418.92773520000003,156.74438676,272.38512834,-229.40874216,58.9437108,123.25235598,-32.36941812,42.73858921161826,set #2
1970-01-01 00:00:19.621518645,3.465181350708008,0.49023181200027466,1.4965623617172241,-30.945495750000003,133.9332501,-72.1704828,78.86592675000001,-218.96707364999997,4.6416981,110.50488345,-5.65100445,43.15352697095436,set #2
1970-01-01 00:00:19.631307397,3.4647772312164307,0.4903067946434021,1.496667742729187,-102.12365396999999,109.95020244,57.209713859999994,115.63909032000001,-158.99167986,-19.20947184,93.67022223,-11.941668179999997,43.56846473029046,set #2
1970-01-01 00:00:19.641445432,3.464509963989258,0.49038419127464294,1.4966351985931396,156.07924176,128.50258200000002,84.99775128,154.38163728,-106.58382384,-61.47497928,222.64993608,67.65065112,43.983402489626556,set #2
1970-01-01 00:00:19.651610885,3.464294672012329,0.4904722273349762,1.4965039491653442,234.99087300000002,317.53558200000003,208.6138977,232.8583686,-134.6805291,-83.35069665,202.9652469,20.3335626,44.39834024896266,set #2
1970-01-01 00:00:19.661293540,3.464108467102051,0.4906065762042999,1.4961867332458496,-173.9367708,-254.8261014,-78.7093554,-53.448642,-62.0214894,-105.2347998,53.440381800000004,-62.9669586,44.81327800829876,set #2
1970-01-01 00:00:19.671664987,3.4638938903808594,0.4908060133457184,1.4956347942352295,177.07768689,167.33307552,86.86146924,127.96374162000001,-108.2053479,-112.06065507,138.81888969,28.57707255,45.22821576763486,set #2
1970-01-01 00:00:19.681245599,3.463775873184204,0.491012305021286,1.4950183629989624,119.14156722,77.47779273,97.85943920999999,126.41525870999999,-115.73388216000001,-141.02242635000002,75.98544564000001,-43.41324585,45.643153526970956,set #2
1970-01-01 00:00:19.691116128,3.4636573791503906,0.49127820134162903,1.494193434715271,424.51648511999997,374.46809088,30.494393279999997,86.89214976,-131.38217664,-170.55202944,53.6754192,51.85875552,46.058091286307054,set #2
1970-01-01 00:00:19.701397691,3.463608980178833,0.49153512716293335,1.493281602859497,262.78872711,278.07728325,72.97454853,152.09564292000002,-46.96985202,-131.19184182,267.59355363000003,46.46805618,46.47302904564316,set #2
1970-01-01 00:00:19.711120401,3.4636240005493164,0.49181824922561646,1.4922089576721191,141.09072081,-137.37709869,-172.0134585,-131.94845547,-94.38269841,-184.68716838,-63.09326166,-31.395,46.88796680497926,set #2
1970-01-01 00:00:19.721580539,3.4636735916137695,0.49213123321533203,1.4909263849258423,232.90449312,375.40103367,-63.33460536,53.81719044,-27.84191709,-204.43589790000001,130.99539102,26.31180123,47.302904564315355,set #2
1970-01-01 00:00:19.731283460,3.463744640350342,0.4924752116203308,1.4894232749938965,160.904289,125.2643028,50.529843,104.4973176,-34.6004802,-200.5030794,110.0417682,33.0182502,47.71784232365145,set #2
1970-01-01 00:00:19.741207872,3.4639203548431396,0.49278706312179565,1.4878054857254028,14.036630400000007,-160.69943136,-240.60409152,-184.63693248,-270.35802144,-279.21169536,-70.08894047999999,-115.43639328,48.13278008298755,set #2
1970-01-01 00:00:19.751469169,3.464078187942505,0.4931271970272064,1.4858840703964233,244.6857816,174.36658941000002,89.99275857,123.20183031,-740.39200053,-271.95965043,25.742082989999993,0.8688661799999977,48.54771784232366,set #2
1970-01-01 00:00:19.761636291,3.464174270629883,0.4935184121131897,1.483607292175293,23.52952992,-82.40924679000001,-120.13325142000001,-56.989102560000006,-579.3685345499999,-229.14417201,55.06076745,23.50568376,48.962655601659755,set #2
1970-01-01 00:00:19.771231208,3.464305877685547,0.4938911497592926,1.4810491800308228,90.04511255999999,60.43128936000001,-115.18859352,-48.20897328,-255.70676976000001,-256.9615776,38.69663616,17.22975384,49.37759336099585,set #2
1970-01-01 00:00:19.781671557,3.464423418045044,0.49425259232521057,1.478236436843872,172.10711193,90.91752656999999,-19.51098084,39.279534840000004,-14.548864980000001,-252.34716507000002,33.832731270000004,20.83066986,49.79253112033195,set #2
1970-01-01 00:00:19.791219029,3.464614152908325,0.4945889413356781,1.4751300811767578,184.07825903999998,78.70676541,-2.40224244,26.03065101,-129.81515352,-251.05988856000002,16.28859336,23.282695020000002,50.207468879668056,set #2
1970-01-01 00:00:19.801438603,3.464907169342041,0.49489420652389526,1.4717483520507812,115.10448299999999,-39.8488272,-91.66405481999999,-35.0010687,-364.89303435,-267.40980708,-44.81228973,-71.3872068,50.622406639004154,set #2
1970-01-01 00:00:19.811486993,3.4652159214019775,0.49519723653793335,1.468064308166504,58.85672715,74.85627240000001,-76.48849104,-35.97414561,-530.3083617,-285.85090950000006,-61.015309290000005,26.46419997,51.03734439834025,set #2
1970-01-01 00:00:19.821874414,3.4656410217285156,0.4954833984375,1.4640926122665405,355.79258364,164.1446781,-195.11427,-185.29426578000002,-600.33995268,-323.18043342000004,8.85467388,-71.13973386,51.45228215767635,set #2
1970-01-01 00:00:19.831405673,3.466175079345703,0.4957478940486908,1.459820032119751,363.60142494,74.85917985,137.68878512999999,150.13919856,-562.2068637899999,-335.21220096,12.38148249,116.51069976000001,51.86721991701245,set #2
1970-01-01 00:00:19.841566596,3.466787099838257,0.4960022270679474,1.4552361965179443,121.32382704000001,-56.38217676,-169.20722832,-203.5804134,-1030.36339224,-451.27081896,-71.6994096,71.12594892,52.282157676348554,set #2
1970-01-01 00:00:19.851211104,3.4674887657165527,0.49623727798461914,1.4503918886184692,590.5269552000001,398.04370944,105.07994016,91.1524848,-789.24758016,-325.19529120000004,217.3397616,58.3709568,52.69709543568465,set #2
1970-01-01 00:00:19.861338410,3.4682400226593018,0.4964398443698883,1.4451926946640015,214.1172462,191.1273819,-87.67741710000001,-95.2966131,-1010.2995123000001,-349.0895577,-32.5834119,74.2454622,53.11203319502075,set #2
1970-01-01 00:00:19.871714864,3.469123125076294,0.49656444787979126,1.4397093057632446,33.83862768,-119.60528112,-180.18587184,-211.36478064,-911.86111536,-331.17497712,-82.050228,-56.14478064000001,53.52697095435685,set #2
1970-01-01 00:00:19.881494317,3.47004771232605,0.4966432452201843,1.4338334798812866,199.09064838,55.45100496,-49.990883280000006,-77.4371637,-1073.6120499,-266.57164911,36.644525970000004,90.82128042,53.941908713692946,set #2
1970-01-01 00:00:19.891423736,3.4709692001342773,0.4966815114021301,1.4275484085083008,4.84525704,-68.30948592,-198.6458448,-239.38764408,-619.8381696,-234.52869024,-126.10918631999999,-40.16649312,54.35684647302905,set #2
1970-01-01 00:00:19.901542220,3.471949338912964,0.4966633915901184,1.4208341836929321,53.201873400000004,-285.85612380000003,-186.02907180000003,-226.9080294,-350.55522840000003,-251.5918236,-103.3476054,-77.89343640000001,54.77178423236515,set #2
1970-01-01 00:00:19.911213431,3.4730138778686523,0.49655622243881226,1.4137169122695923,156.52585884,12.355240949999995,-180.07938156,-258.46809495,-387.8259528,-74.90542722,55.77985686,-67.02995247,55.18672199170125,set #2
1970-01-01 00:00:19.921551976,3.4740712642669678,0.49641209840774536,1.4062273502349854,204.19549487999998,225.18127944,23.6554812,0.6009213600000001,-351.27943968,-38.14209672,-110.66584464,79.08690816000001,55.601659751037346,set #2
1970-01-01 00:00:19.931468759,3.4751358032226562,0.49625706672668457,1.3983731269836426,64.13040738000001,-27.885112319999998,-160.18062489,-151.34464878000003,187.62728205000002,90.46708593,-149.5658424,-18.476095560000005,56.016597510373444,set #2
1970-01-01 00:00:19.940738235,3.4763123989105225,0.49599599838256836,1.3902060985565186,-12.2092776,-222.56726895,-235.57032135,-208.35749025,-148.32730965000002,78.3647592,-17.605099199999998,-109.72765050000001,56.43153526970955,set #2
1970-01-01 00:00:19.950997863,3.477611780166626,0.49563083052635193,1.3817248344421387,134.37583575000002,62.206666860000006,-109.92666048000001,-138.17499071999998,-193.97332734,-21.84168948,173.8899942,-74.31081255000001,56.84647302904565,set #2
1970-01-01 00:00:19.961237464,3.4789936542510986,0.4951069951057434,1.3729485273361206,-23.53801632,-188.09216712,-158.61670968,-118.2925068,-1062.42136104,-168.6221784,-123.05533967999999,-8.410403040000006,57.261410788381745,set #2
1970-01-01 00:00:19.971385036,3.4804835319519043,0.494406521320343,1.3638619184494019,23.1373818,30.022873920000002,-134.7542586,-123.81646992,-106.18116911999999,-377.0068302,-192.93962532,43.61945484,57.67634854771784,set #2
1970-01-01 00:00:19.981687579,3.4821698665618896,0.4934978783130646,1.3546900749206543,-329.52405369,-261.80962587,-242.18728872,-219.859419,262.59424308,-573.9094674300001,196.68948507,-232.41602553,58.09128630705395,set #2
1970-01-01 00:00:19.991500888,3.4838716983795166,0.4924079179763794,1.3451969623565674,137.91313848000001,-30.21218616,-160.06487016,-164.54917752,338.59238088000006,-738.4224026400001,-212.68333320000002,-73.43950224,58.50622406639005,set #2
1970-01-01 00:00:20.001468215,3.4855477809906006,0.4911298155784607,1.3354085683822632,13.66814085,60.7990071,-119.61413879999999,-116.61380445,-57.04250760000001,-835.3766616,-62.08965555,-167.4711246,58.921161825726145,set #2
1970-01-01 00:00:20.011497531,3.4872219562530518,0.4896829128265381,1.3253880739212036,-159.00348789,-268.56603423,-265.55244651000004,-244.72981455,-63.62392296,-928.78211127,-196.37897292,-241.23954348,59.33609958506224,set #2
1970-01-01 00:00:20.021209989,3.4888458251953125,0.4879952073097229,1.3151085376739502,-162.240429,-138.24725148000002,-170.23123299,-173.08230029999999,914.99090163,-743.4495517800001,183.06840240000002,-49.39493715,59.75103734439834,set #2
1970-01-01 00:00:20.031487737,3.49039888381958,0.48614996671676636,1.304760217666626,-204.83608626,-151.62978167999998,-260.20173855,-228.9263028,929.3036883,-735.19999644,254.15348244,-177.80696310000002,60.165975103734446,set #2
1970-01-01 00:00:20.041466746,3.491948127746582,0.4840981960296631,1.294270634651184,-75.13198134,-124.72868303999999,-277.7485581,-225.69745536,190.9568505,-758.6167017,-280.94822886,-196.74527964,60.580912863070544,set #2
1970-01-01 00:00:20.051234279,3.4934768676757812,0.4818499684333801,1.2836785316467285,-21.97608426,-141.23264376,-134.3660643,-50.59876497,630.5354952,-839.29465854,-146.58827274,-4.307794530000001,60.99585062240664,set #2
1970-01-01 00:00:20.061278138,3.4949636459350586,0.4794140160083771,1.2730014324188232,-162.1918584,-193.07321202,-99.18662832,-51.00094506,48.3039141,-681.79686432,389.3550258,50.25806526,61.41078838174274,set #2
1970-01-01 00:00:20.071562085,3.496340274810791,0.47676584124565125,1.2621963024139404,-279.23702234999996,-149.43875505,-167.57375505000002,-131.3893425,559.43337645,-761.7261951,254.49364590000002,168.3225492,61.82572614107884,set #2
1970-01-01 00:00:20.081388507,3.4975948333740234,0.4738888740539551,1.2511825561523438,-162.16011357000002,-121.23214895999999,-147.99331209000002,-100.92973761,-185.95643976,-602.73867381,467.69600007,-85.06884399,62.240663900414944,set #2
1970-01-01 00:00:20.091475520,3.4988038539886475,0.47079652547836304,1.240006685256958,-255.0368496,-222.980472,-232.730472,-255.7063392,-196.878864,-549.5481887999999,139.7085456,-85.4412624,62.65560165975104,set #2
1970-01-01 00:00:20.101671968,3.4999141693115234,0.4674935042858124,1.2286765575408936,-174.58198368,-146.95052736000002,-114.4960128,-176.52850176,-161.0758032,-499.00772064,459.88715136,-29.33799648,63.07053941908714,set #2
1970-01-01 00:00:20.111273322,3.5008444786071777,0.4639846086502075,1.217293620109558,-287.76287514,-457.3008453,-275.85157236000003,-355.43009501999995,-136.75146186,-533.85032376,250.85240778,-78.00576576,63.48547717842324,set #2
1970-01-01 00:00:20.121582542,3.501652240753174,0.4602634310722351,1.2058132886886597,-76.8733017,-326.23314828,-196.51855002000002,-324.94178964,-322.6506465,-502.68663978,133.83139146,-38.076420719999994,63.90041493775934,set #2
1970-01-01 00:00:20.131750140,3.5024304389953613,0.45636752247810364,1.1942827701568604,-38.388136800000005,-43.95628380000001,-130.253994,-290.5443216,-472.6726836,-659.0998908,103.159368,-27.2970516,64.31535269709543,set #2
1970-01-01 00:00:20.141572986,3.5030806064605713,0.4522745609283447,1.1826505661010742,-142.86236172,-153.64984049999998,-176.08074822,-334.80058872,-362.18669838,-786.3368510399999,191.8966491,-152.76318798,64.73029045643153,set #2
1970-01-01 00:00:20.151566062,3.503728151321411,0.4478636682033539,1.1709179878234863,-360.77172534000005,-256.85290722,-162.40216122,-284.44285974,-676.4908215,-979.22331936,-24.1208955,14.65884186,65.14522821576764,set #2
1970-01-01 00:00:20.161306653,3.504164457321167,0.4432217478752136,1.1590864658355713,-1007.1640979399999,-171.82581624,-189.65676015,-290.55566904,-463.63870098,-871.9844363100001,271.17689898,469.71691572000003,65.56016597510374,set #2
1970-01-01 00:00:20.171351466,3.504591703414917,0.43833547830581665,1.1472564935684204,-377.20252596,-232.30458263999998,-229.2139239,-329.09304558,268.14334404,-1004.57484582,-647.9741486400001,404.69134602,65.97510373443984,set #2
1970-01-01 00:00:20.182052884,3.5049588680267334,0.43321022391319275,1.135482907295227,262.12504032000004,-214.63312572,-206.86686852,-301.10997696,758.9233158000001,-970.78880808,361.70238,-432.95805852,66.39004149377594,set #2
1970-01-01 00:00:20.191631589,3.5053727626800537,0.42782270908355713,1.1238330602645874,29.363365199999997,-91.25001912,-177.47025972,-231.08505537,180.39481278000002,-1104.47962755,-367.00944033,141.20025972,66.80497925311204,set #2
1970-01-01 00:00:20.201495442,3.5056869983673096,0.42225366830825806,1.112309217453003,294.45533286,-125.43477336000001,-181.40155098,-205.55133144,1241.37446862,-1147.6900071,463.8355098,-184.8694263,67.21991701244814,set #2
1970-01-01 00:00:20.211734805,3.505981922149658,0.416490375995636,1.1008294820785522,568.52506815,-218.29657395,-194.24370420000002,-244.57416555,865.04158065,-1301.24360925,-606.3564175500001,71.33455875,67.63485477178423,set #2
1970-01-01 00:00:20.221277509,3.5062766075134277,0.4106042981147766,1.0895802974700928,706.82006304,84.48263109,-84.97802937,-119.59654083,1364.22495846,-1214.21548209,506.75359527000006,-210.54953867999998,68.04979253112033,set #2
1970-01-01 00:00:20.232302699,3.5064926147460938,0.404563307762146,1.0785799026489258,585.83915988,120.44504277000001,-105.66042006,-169.43594616000001,-417.8007912,-1566.85231443,-603.35417805,63.590517899999995,68.46473029045643,set #2
1970-01-01 00:00:20.241450820,3.506669759750366,0.39841872453689575,1.0677924156188965,439.24229699999995,-197.28246719999999,-172.594188,-169.963287,-666.5163648,-1318.5676139999998,76.98986099999999,-248.8072314,68.87966804979254,set #2
1970-01-01 00:00:20.251374755,3.5069987773895264,0.39207151532173157,1.0571541786193848,395.90687175,-115.1465445,-234.3758586,-125.82231675,699.8624919,-1149.2468325,-76.4025444,-98.865,69.29460580912864,set #2
1970-01-01 00:00:20.261700664,3.507505178451538,0.38559722900390625,1.0467580556869507,423.19107168,-23.202410399999998,-149.85990864000001,-189.69967848,-257.09115432,-1101.97441848,-135.20383343999998,-100.5992832,69.70954356846474,set #2
1970-01-01 00:00:20.271584306,3.507877826690674,0.379095196723938,1.036753535270691,360.72976212000003,-87.53223960000001,-104.91784290000001,-253.860165,-1819.37380404,-1021.1097803399999,403.25670918000003,-249.65917704,70.12448132780084,set #2
1970-01-01 00:00:20.281670604,3.5081968307495117,0.3724084496498108,1.0269140005111694,407.73117995999996,-65.28866916,-203.328723,-271.1211906,337.92630924,-551.4262338,-236.112279,-183.18435876,70.53941908713693,set #2
1970-01-01 00:00:20.291582856,3.5083260536193848,0.365598201751709,1.0172157287597656,305.45018712,-78.00223392,-191.20699416,-237.79635671999998,476.88638399999996,-545.1532164,-548.5495204800001,-124.33300776,70.95435684647303,set #2
1970-01-01 00:00:20.301712785,3.508455753326416,0.35864365100860596,1.0077877044677734,260.68187535,-102.1718061,-227.25868425000002,-348.95507205,2167.79311905,-235.5094404,-292.88625210000004,-323.5101441,71.36929460580913,set #2
1970-01-01 00:00:20.311693702,3.5084729194641113,0.3515240252017975,0.9985988736152649,282.5642859,-94.11616578,-128.76661746,-358.87781982,1169.44291698,-171.15901842,-57.71406888,-359.40135504000006,71.78423236514523,set #2
1970-01-01 00:00:20.321244035,3.5083796977996826,0.34435003995895386,0.9896721243858337,370.06641945,-18.26739525,-89.653473,-241.60164015,1354.78643625,2.3239222500000003,12.5870121,-366.93882030000003,72.19917012448133,set #2
1970-01-01 00:00:20.330682788,3.5081145763397217,0.3369487226009369,0.980728805065155,236.22460836,-135.9358026,-83.38067088,-270.57733404,1252.77708816,223.25141904,-137.19761328,-205.75634352,72.61410788381743,set #2
1970-01-01 00:00:20.340414796,3.507863998413086,0.3294669985771179,0.9720585942268372,-16.47272328,-218.72354088,-134.28595284,-403.74965748,783.6857012400001,18.947430840000003,-93.68217924,-201.14986476,73.02904564315354,set #2
1970-01-01 00:00:20.350621018,3.5075466632843018,0.32197803258895874,0.9637153148651123,93.28082946,-333.06371358,-147.23742384000002,-28.03030464,522.3750877800001,145.89484104,77.17779966,-422.81840561999996,73.44398340248964,set #2
1970-01-01 00:00:20.360463176,3.5071492195129395,0.3144800066947937,0.955599844455719,35.96616816,0.24414311999999994,-99.31468871999999,51.8376924,479.26400184,223.14193200000003,61.45978176,-225.00576384,73.85892116182573,set #2
1970-01-01 00:00:20.371147904,3.5069808959960938,0.3069748878479004,0.947857677936554,57.68987328,-61.459344959999996,-76.55068512000001,34.96011168,174.58782432,451.45558848,-7.100558400000001,-239.55736896,74.27385892116183,set #2
1970-01-01 00:00:20.380480800,3.506723165512085,0.2994011342525482,0.9402440786361694,33.870408,-94.311984,-58.822608,160.553016,-123.237504,974.461176,106.823184,-343.111392,74.68879668049793,set #2
1970-01-01 00:00:20.390258584,3.5062780380249023,0.291845440864563,0.9328881502151489,-41.2906416,-127.65638496,-78.49209264,71.60392824,709.6142976000001,1541.61602088,38.47146888,-313.796418,75.10373443983403,set #2
1970-01-01 00:00:20.400512490,3.5056822299957275,0.2842274010181427,0.9257203936576843,71.08244909999999,-94.18453199999999,-92.0547693,22.0636026,2296.466289,1774.2996609,75.6738333,-349.5473202,75.51867219917013,set #2
1970-01-01 00:00:20.410293136,3.505033254623413,0.27669909596443176,0.9187815189361572,-60.538657920000006,-157.54342032,-53.34355104,-53.318990400000004,978.7645608,1637.25327792,196.85311152,-268.06716144,75.93360995850622,set #2
1970-01-01 00:00:20.420406613,3.504241704940796,0.26912832260131836,0.9120080471038818,-237.91202097,-107.01927444,-47.70442326,-88.17868605000001,1061.38325124,1342.31639763,871.38146277,-327.17636055,76.34854771784232,set #2
1970-01-01 00:00:20.430683408,3.5033180713653564,0.2615525722503662,0.9055046439170837,-85.91839776,-33.89082528,-96.39890832,-202.06424783999998,779.5977696,966.66344736,1447.12422816,-372.7717968,76.76348547717843,set #2
1970-01-01 00:00:20.440471921,3.502232074737549,0.2540033459663391,0.8992036581039429,-124.08819735,46.754082180000005,-95.53021296,-223.35414816,30.88589985,683.19873726,710.16409425,-338.84218056000003,77.17842323651453,set #2
