,x,y,z,emg_1,emg_2,emg_3,emg_4,emg_5,emg_6,emg_7,emg_8,percentage,Source
1970-01-01 00:00:34.867106971,3.397268772125244,0.2781834304332733,0.7765070199966431,67.76203083,158.31187476000002,255.96327939,73.37812715999999,-734.37327171,-482.32031406,141.06749904,166.47468786,0.0,set #1
1970-01-01 00:00:34.877136287,3.3970248699188232,0.277811735868454,0.7765331864356995,40.41815193,102.37401369,206.94585054,9.83738106,-633.53344704,-478.61770983,70.27240350000001,94.02587298,0.2777777777777778,set #1
1970-01-01 00:00:34.887410459,3.3968021869659424,0.27742674946784973,0.7765787839889526,-19.08094812,37.0818396,85.42144455,-42.20495526,-667.1271332700001,-499.93950357,22.34063208,24.302076630000002,0.5555555555555556,set #1
1970-01-01 00:00:34.897273836,3.396594524383545,0.2771015167236328,0.7765874266624451,11.27281584,66.55034256,33.55296828,16.48636236,-652.0713544800001,-498.10912476,76.17971088,69.59597424,0.8333333333333334,set #1
1970-01-01 00:00:34.907407102,3.39643931388855,0.27683451771736145,0.7766017913818359,54.787452720000005,115.76705712,43.44443844,35.6561868,-701.75938248,-497.26063296,130.12249614,77.86781262000001,1.1111111111111112,set #1
1970-01-01 00:00:34.917333660,3.3962526321411133,0.27649223804473877,0.7766832709312439,-99.054267,-62.0088534,-101.2042356,-106.276911,-581.1660192,-496.2734712,14.8249686,-14.5608918,1.3888888888888888,set #1
1970-01-01 00:00:34.927099285,3.396052122116089,0.27622005343437195,0.776740312576294,-50.075202450000006,-35.916250500000004,-50.44010595,-39.8284809,-671.07383655,-469.44104805,37.7759421,9.073615199999999,1.6666666666666667,set #1
1970-01-01 00:00:34.937158641,3.395796537399292,0.2760137617588043,0.7768803238868713,40.10093061,59.366179859999995,-63.050730210000005,-19.82813001,-727.3019013,-470.9923998,81.54922971,67.3086999,1.9444444444444446,set #1
1970-01-01 00:00:34.947357473,3.395561933517456,0.27597469091415405,0.7769222855567932,69.23851935,104.83788783,-16.92323724,7.700545709999998,-775.73944812,-473.90288166,163.11464442000002,109.80122322,2.2222222222222223,set #1
1970-01-01 00:00:34.957411823,3.3953003883361816,0.2758847177028656,0.7770024538040161,21.4038903,55.66567344,-20.40660843,-10.62299238,-656.59836411,-443.67304215,207.05290554,101.05379076,2.5,set #1
1970-01-01 00:00:34.967356977,3.3950207233428955,0.2758522033691406,0.7770743370056152,102.20902146,103.82298927,59.14032618,67.91306223000001,-657.71807517,-422.87699141999997,205.77353433,92.98054506,2.7777777777777777,set #1
1970-01-01 00:00:34.977606353,3.3947229385375977,0.2758996784687042,0.7771759629249573,71.07534369,81.39740583000001,34.399192230000004,80.29420971,-789.02268354,-381.58536117,171.14429514,85.49781747,3.055555555555556,set #1
1970-01-01 00:00:34.987278757,3.3944685459136963,0.2759934961795807,0.7771347165107727,-25.964304600000002,-22.78913247,-65.25770862,-24.33520518,144.94577526,-347.1293046,62.83142385,-23.03080143,3.3333333333333335,set #1
1970-01-01 00:00:34.997382459,3.394209384918213,0.27600547671318054,0.7772229313850403,71.25434277000001,84.41102475,43.16270673,48.712982370000006,361.11883743,-310.93402119,167.29836396000002,62.7215901,3.611111111111111,set #1
1970-01-01 00:00:35.007088718,3.3939785957336426,0.27595818042755127,0.777285099029541,-7.76240088,-11.77260162,13.561396680000001,-20.3340033,-459.08539248,-355.86239988,145.81559772,50.64639918,3.8888888888888893,set #1
1970-01-01 00:00:35.017043170,3.393810510635376,0.27599653601646423,0.7773605585098267,107.4409752,121.4121246,113.5980534,151.0732314,-123.7654275,-336.4760178,198.492918,120.8618112,4.166666666666667,set #1
1970-01-01 00:00:35.027448711,3.3936898708343506,0.27608388662338257,0.7773575186729431,142.50499458000002,138.87005691000002,81.79998645,119.9099187,262.11423849,-296.31506775,125.09490786,78.31491057000001,4.444444444444445,set #1
1970-01-01 00:00:35.037205991,3.393620491027832,0.2760762870311737,0.7774887084960938,-109.96975821,-156.45793371000002,-81.9,-55.97668245,-0.55139331,-307.2966351,-11.90668245,-95.68946907,4.722222222222222,set #1
1970-01-01 00:00:35.047389326,3.393601179122925,0.27601295709609985,0.7776246070861816,151.10438928000002,161.32918074,102.7890864,112.65630089999999,215.65071996,-300.3701142,106.14177756000001,32.80096326,5.0,set #1
1970-01-01 00:00:35.057527360,3.393648862838745,0.27602705359458923,0.7777398824691772,156.15019680000003,157.78782239999998,98.5096944,124.0333536,170.54525280000001,-286.986648,186.526704,144.9111456,5.277777777777778,set #1
1970-01-01 00:00:35.067450819,3.3937809467315674,0.2760714292526245,0.777895450592041,78.51789192,21.81126909,38.42464626,56.28792390000001,259.64411304,-279.30714006000005,67.40289192,33.09568431,5.555555555555555,set #1
1970-01-01 00:00:35.077148256,3.3940043449401855,0.2760286033153534,0.7780590653419495,-54.6011232,-94.42420416,-55.347102719999995,-47.5754448,249.48208896,-271.8368016,-5.445248640000001,-44.3806272,5.833333333333334,set #1
1970-01-01 00:00:35.087553558,3.394296407699585,0.27592143416404724,0.7782461643218994,207.13922657999998,174.37951986000002,265.84766286,257.06535816,21.87491046,-231.56184012,192.4788762,122.18115624,6.111111111111112,set #1
1970-01-01 00:00:35.097182569,3.3946964740753174,0.27590394020080566,0.7784096598625183,4.16476125,-33.9532674,72.63302865,111.14033696999999,54.13413642,-266.64586494,148.13129877,80.46057708000001,6.388888888888889,set #1
1970-01-01 00:00:35.107139167,3.3952033519744873,0.2758792042732239,0.7786118388175964,116.06888865,46.208830590000005,117.20085702,130.74621144,153.25992591,-211.8122487,257.06037045000005,187.49542851,6.666666666666667,set #1
1970-01-01 00:00:35.117465314,3.395826578140259,0.2757571339607239,0.7788758873939514,4.391853179999998,-0.6715152599999925,-72.75286044,-59.43645162,81.49545533999999,-236.42677968,56.58063528,29.871249719999998,6.944444444444445,set #1
1970-01-01 00:00:35.127209959,3.396587610244751,0.27564242482185364,0.7791942358016968,13.87543248,-53.582755590000005,16.60703148,-66.72543579,77.59078626,-227.84608782,62.61702486,-26.7942792,7.222222222222222,set #1
1970-01-01 00:00:35.137360630,3.397491216659546,0.2756308317184448,0.7795602679252625,151.2312594,132.2361105,120.98230170000001,89.44051350000001,-218.5624506,-236.1102978,146.3412093,122.42284860000001,7.5,set #1
1970-01-01 00:00:35.147435722,3.3985166549682617,0.2757295072078705,0.7799220681190491,65.17971564000001,77.47847874000001,53.60751552,42.5927892,-241.54910519999999,-260.4643158,46.005605100000004,12.15614712,7.777777777777779,set #1
1970-01-01 00:00:35.157281217,3.399693727493286,0.27589738368988037,0.7804093360900879,-14.54441079,-37.95524694,-100.23041184,-128.78594313,-168.58802727,-268.78284186,-27.495411840000003,-16.36772241,8.055555555555555,set #1
1970-01-01 00:00:35.167382774,3.4009571075439453,0.27612727880477905,0.7809503674507141,65.23269402,51.137640059999995,51.05361768,-28.42890414,-178.45021584,-250.53303444000002,36.44353674,101.0165442,8.333333333333334,set #1
1970-01-01 00:00:35.178137598,3.4023823738098145,0.27653011679649353,0.781548261642456,52.2788331,43.97468244,90.12706794,34.92618168,-94.07931312,-227.57029541999998,30.97781388,42.45409896,8.61111111111111,set #1
1970-01-01 00:00:35.187501964,3.4039859771728516,0.27698880434036255,0.7822167277336121,-51.155872560000006,-27.00344712,29.20940412,-78.8221278,-383.603298,-233.67051084000002,59.41602108,63.53782968,8.88888888888889,set #1
1970-01-01 00:00:35.197457847,3.405702590942383,0.27733659744262695,0.7829614281654358,-13.21978515,-37.886147130000005,102.14484462,45.92414541000001,-466.17924132,-208.98789756,93.37262805,83.26323135,9.166666666666668,set #1
1970-01-01 00:00:35.207393465,3.407564640045166,0.27775904536247253,0.7838163375854492,-82.5680973,-46.45818645,5.7414162,-71.47911615,-569.4321243,-214.7082756,100.1624325,39.469778399999996,9.444444444444445,set #1
1970-01-01 00:00:35.217397985,3.4096903800964355,0.2781926691532135,0.7847877144813538,79.1508471,89.76778395,192.4885755,137.9489943,-577.67693685,-167.8827189,293.55506505,250.37263485,9.722222222222223,set #1
1970-01-01 00:00:35.227281389,3.412022590637207,0.27869904041290283,0.7858311533927917,211.19247123,208.90143806999998,352.52163882,373.87283778,-721.1152041600001,-163.07243628,348.79735956,289.34771034000005,10.0,set #1
1970-01-01 00:00:35.237234649,3.4145007133483887,0.27935555577278137,0.7870433926582336,106.70092134,79.87729971,217.59947196,198.38684268,-793.39598871,-168.1498689,297.36986526,235.06821741000002,10.277777777777779,set #1
1970-01-01 00:00:35.247247991,3.417023181915283,0.2801183760166168,0.7883784770965576,-213.62127774,-163.35045324,-65.29792191,-71.2289682,-975.28231437,-243.33806172,24.935366430000002,-26.53366443,10.555555555555555,set #1
1970-01-01 00:00:35.257379827,3.4195656776428223,0.28093427419662476,0.7897359132766724,-204.71897589,-187.13885541,-221.51831325,-257.25939759000005,-1339.3863252899998,-305.30469879,-166.97192772,-201.57481929,10.833333333333334,set #1
1970-01-01 00:00:35.267512855,3.4222004413604736,0.28210172057151794,0.791248083114624,-113.0173941,-94.0322058,-203.7214257,-188.9470713,-1242.9846234,-204.5159415,-137.27049765,-98.0894889,11.11111111111111,set #1
1970-01-01 00:00:35.277274188,3.4250552654266357,0.2834482789039612,0.7929784059524536,-169.57473468,-186.47673408,-193.39013616,-205.10280336,-1242.61586904,-144.6523338,-129.18507108,11.667862440000004,11.38888888888889,set #1
1970-01-01 00:00:35.287353572,3.4279489517211914,0.28487294912338257,0.7948278784751892,267.91754652,296.14518804,309.00679212,296.25937068,-656.2654722,21.445848839999996,238.42654056,496.96311288,11.666666666666668,set #1
1970-01-01 00:00:35.297490653,3.4308953285217285,0.2864225208759308,0.7967574596405029,-79.56719004,-19.979235120000006,-77.56985106,-120.94189614,-533.64394122,-24.79780797,50.550591780000005,291.17509863,11.944444444444445,set #1
1970-01-01 00:00:35.307270584,3.4339780807495117,0.2880711555480957,0.798805832862854,3.4300032000000016,21.119975760000003,171.74683344,87.69744672,-134.28321504000002,93.37974984,210.1184748,381.98675112,12.222222222222223,set #1
1970-01-01 00:00:35.317142305,3.4370853900909424,0.2897726595401764,0.800922691822052,21.30446955,83.5470168,126.03440655,120.51589290000001,-1779.5517753,-10.57645485,80.084979,354.46039395,12.5,set #1
1970-01-01 00:00:35.327234086,3.440274477005005,0.29139894247055054,0.8031507730484009,-2.7772165199999996,33.1860672,154.1173101,191.74430028,-761.2679622600001,-112.35442842,81.42114162,341.43141552000003,12.777777777777779,set #1
1970-01-01 00:00:35.337371644,3.4436469078063965,0.2929878234863281,0.80546635389328,256.60135332,106.44841272000001,344.13476604,78.92888484,-198.73870692,-36.97082376,-92.00693892,35.528296440000005,13.055555555555555,set #1
1970-01-01 00:00:35.347413597,3.4472174644470215,0.29462453722953796,0.8078288435935974,-224.00250093,-262.69869717,262.3075377,-310.64059533,-1336.27912353,-240.09855753,-265.50876885,-44.171091510000004,13.333333333333334,set #1
1970-01-01 00:00:35.357355890,3.450730800628662,0.2965828478336334,0.8097603917121887,-154.9243332,-140.8554927,307.26624630000003,3.864825900000003,-2662.0055942999998,-507.73553610000005,-122.6608695,-28.4308986,13.611111111111112,set #1
1970-01-01 00:00:35.367361364,3.4546291828155518,0.29818084836006165,0.8117674589157104,89.64412548,82.20042636,497.47421412,302.36785332,-1734.87687828,-387.02977716,153.6333708,154.19445132,13.88888888888889,set #1
1970-01-01 00:00:35.377273616,3.4587326049804688,0.2996630370616913,0.8138198852539062,-166.54777776,-236.07320256,14.549389920000003,-409.21482576,-1262.7138888,-254.88659040000002,-464.43473855999997,-355.60503264,14.166666666666668,set #1
1970-01-01 00:00:35.387393770,3.4630441665649414,0.30112960934638977,0.815905749797821,296.5747551,116.31127169999999,25.407946199999998,-300.733602,-1640.8421406,-110.9129463,-272.365158,-93.1723065,14.444444444444445,set #1
1970-01-01 00:00:35.397368488,3.4676005840301514,0.3025868535041809,0.8180830478668213,387.6198612,82.6054164,153.03783768,-26.472916080000005,-1476.7944640800001,16.39115088,-208.19335368,-174.73115088,14.722222222222223,set #1
1970-01-01 00:00:35.407339868,3.472275733947754,0.3040010631084442,0.8203453421592712,246.26584788,108.06686436000001,44.02412664,124.01371788,-1449.94748184,368.12426976,-222.08963244,-210.06473436,15.0,set #1
1970-01-01 00:00:35.417361316,3.4770708084106445,0.3053877055644989,0.822624921798706,158.71440624000002,8.81614188,-90.47447448,-13.230250799999999,-424.22178084,396.48632399999997,-210.39924672,-634.4147487600001,15.277777777777779,set #1
1970-01-01 00:00:35.427118120,3.4819514751434326,0.3068941831588745,0.8250057697296143,227.89494,259.5677916,90.31176959999999,145.6197756,401.6565852,507.81798599999996,49.315702800000004,-385.9564956,15.555555555555557,set #1
1970-01-01 00:00:35.437070188,3.486835479736328,0.3084346055984497,0.8275776505470276,47.11776108,-21.70257492,116.60916228,38.790894480000006,558.37050672,132.27096168,-105.58050672,-194.01511896,15.833333333333334,set #1
1970-01-01 00:00:35.447635469,3.4917166233062744,0.3101630210876465,0.8302654027938843,-84.32541546,-27.71204826,186.86854953000002,171.21473694000002,207.54238752,165.30814677,-158.68574202,-120.24681513,16.11111111111111,set #1
1970-01-01 00:00:35.457307157,3.496424674987793,0.31205883622169495,0.833084762096405,-40.61118009,-105.31783977,-65.39632515,-30.086210699999995,536.11392471,-121.19579316000001,-116.64605433,-303.84954054,16.38888888888889,set #1
1970-01-01 00:00:35.467077312,3.5011279582977295,0.31405359506607056,0.8360934853553772,15.71863488,-3.01968576,10.03319616,58.833353280000004,211.93595904,18.42637056,-6.55531968,-66.11062848,16.666666666666668,set #1
1970-01-01 00:00:35.477239665,3.50577974319458,0.31617483496665955,0.8392750024795532,92.08440734999999,12.066650699999997,230.2505244,356.97849525000004,244.71408975,-121.66172265,-169.19078280000002,230.4139734,16.944444444444446,set #1
1970-01-01 00:00:35.487447080,3.5104546546936035,0.31841450929641724,0.842784583568573,223.09499160000001,219.1494396,442.0067184,414.5458824,95.0311908,-62.345899200000005,-272.4149688,165.6162456,17.22222222222222,set #1
1970-01-01 00:00:35.497563180,3.515324115753174,0.3205067813396454,0.8466932773590088,-73.9724076,-218.9530278,-87.2965392,-435.6371838,-586.3744536,186.1497768,-426.34001279999995,26.700632399999996,17.5,set #1
1970-01-01 00:00:35.507210311,3.5201780796051025,0.3232753276824951,0.850512683391571,-139.96307949,-155.5576581,-35.06233497,-203.93393046,30.174562859999995,153.28628055000001,-318.27095742,56.66840829,17.77777777777778,set #1
1970-01-01 00:00:35.517863092,3.5252156257629395,0.3260031044483185,0.8545624017715454,155.83790664000003,6.716406839999998,-3.950846639999998,-50.8784406,-106.82242271999999,116.21766468,-186.80798292,-31.81525308,18.055555555555557,set #1
1970-01-01 00:00:35.527586040,3.530383586883545,0.32872575521469116,0.8588573336601257,252.2490048,-190.4117748,-17.7107736,12.103338,-270.8415372,64.0214484,-258.7554372,-387.09802559999997,18.333333333333336,set #1
1970-01-01 00:00:35.537540969,3.5357728004455566,0.33120086789131165,0.8634371757507324,425.84692956,14.653271100000001,69.89683272,268.78342491,165.64572726,157.62321666000003,-98.37093708,4.376557380000001,18.61111111111111,set #1
1970-01-01 00:00:35.547628459,3.541257858276367,0.33399465680122375,0.8679786324501038,380.47970298,-153.71935643999998,-239.23267329,-145.37980197,771.09782178,124.50940593,-289.37153466,-260.76584157,18.88888888888889,set #1
1970-01-01 00:00:35.557335433,3.5469412803649902,0.3364403247833252,0.8726403117179871,656.25270126,-80.62742337,258.38695623,376.86405003,299.07533604,-40.23141525,158.51625738,-223.09290159,19.166666666666668,set #1
1970-01-01 00:00:35.567609844,3.552762269973755,0.33869484066963196,0.8774975538253784,323.73767868000004,-534.47230044,-726.87457284,-980.1039643199999,-959.6154313200001,-299.82081791999997,-468.07351032,-852.2771119199999,19.444444444444446,set #1
1970-01-01 00:00:35.577279386,3.558741807937622,0.3407852351665497,0.8825159668922424,1048.60258464,307.79125650000003,680.71181412,736.16656386,-1897.49333436,-116.23197300000001,44.96187228000001,15.145856700000001,19.72222222222222,set #1
1970-01-01 00:00:35.593506393,3.564859390258789,0.34278759360313416,0.8876514434814453,-66.0097308,-419.95769516999997,-33.09029295,56.33990895,849.58612908,-860.36217657,199.61110689,-348.13549485,20.0,set #1
1970-01-01 00:00:35.597574768,3.5710864067077637,0.344622939825058,0.8929448127746582,210.98617488000002,-57.2865696,405.57613200000003,388.32141504000003,1096.40070384,84.9545112,425.8745712,180.7103688,20.27777777777778,set #1
1970-01-01 00:00:35.607424316,3.5773468017578125,0.34626954793930054,0.8983892202377319,-43.49058948000001,-311.96600292000005,-49.06262868000002,50.47093271999999,757.9304506799999,-705.09967632,-296.06420688000003,132.07756691999998,20.555555555555557,set #1
1970-01-01 00:00:35.617440280,3.583674192428589,0.34778961539268494,0.9039720892906189,481.2694692,141.3557184,815.0436060000001,866.8360272,2434.8838956,-950.841216,-345.1787508,-125.7438312,20.833333333333336,set #1
1970-01-01 00:00:35.627269325,3.5900678634643555,0.34925132989883423,0.9097588062286377,-41.081098499999996,-504.917205,-166.1287485,-702.3486015000001,1223.675115,-817.9263885,-838.16790525,-180.15319724999998,21.11111111111111,set #1
1970-01-01 00:00:35.637495098,3.596491575241089,0.35047078132629395,0.9156187772750854,752.2469019,263.07602022000003,1068.35337882,451.78631706,3826.1293839600003,-959.4802854000001,-213.4007421,125.35632174,21.38888888888889,set #1
1970-01-01 00:00:35.647611436,3.6028709411621094,0.35163408517837524,0.9216704964637756,221.87287668,34.937310720000006,1245.80925924,674.57747604,4196.3808666,-671.56517532,-297.66325524,320.07571128,21.666666666666668,set #1
1970-01-01 00:00:35.657830057,3.6093122959136963,0.3528572618961334,0.9279866814613342,56.96583555,91.3050021,332.59766592,-359.30388780000004,2104.87758273,199.97029065,-179.19783219,-144.05022216,21.944444444444446,set #1
1970-01-01 00:00:35.667283830,3.6157219409942627,0.3541259169578552,0.9344630241394043,-436.99176300000005,-534.5031939,926.514537,-734.0303958,3043.5429453,-1369.7055294,-307.8526074,-322.6044003,22.22222222222222,set #1
1970-01-01 00:00:35.677958068,3.6220741271972656,0.35545778274536133,0.9411640167236328,119.21704392,-5.737798559999998,1499.42765388,-396.91484976,-991.37960064,-740.6890514400001,574.6753552800001,105.8537454,22.5,set #1
1970-01-01 00:00:35.687887964,3.62835693359375,0.3568173348903656,0.9480647444725037,-304.14827664,-571.03563036,99.63526092,-849.8981337600001,1242.42519492,-29.835263639999994,163.80872976,-111.05212716,22.77777777777778,set #1
1970-01-01 00:00:35.697633085,3.6345181465148926,0.3582513928413391,0.9552410840988159,83.72532675,-70.1631528,717.99541515,244.25067420000002,143.64190035000001,-534.15307335,128.9745717,-365.6696394,23.055555555555557,set #1
1970-01-01 00:00:35.707916078,3.640643835067749,0.3598313331604004,0.9626180529594421,-26.746896539999995,-249.88480842,774.72685056,520.88715744,404.41799033999996,-977.16086988,283.38431706,-108.73385094,23.333333333333336,set #1
1970-01-01 00:00:35.717459259,3.6466805934906006,0.36150991916656494,0.970210075378418,291.78067698,-29.281750680000002,839.66418744,1141.6094312999999,-508.01693631,338.22529299,541.2997652399999,99.37347498,23.61111111111111,set #1
1970-01-01 00:00:35.727191505,3.6525468826293945,0.36314857006073,0.9779497385025024,228.53306385000002,-22.377884099999996,-215.51506665,263.3209605,264.73450965,200.63121195,246.86478375000002,-92.75345235,23.88888888888889,set #1
1970-01-01 00:00:35.737330970,3.658337354660034,0.36486297845840454,0.9859504103660583,523.0907448,118.83638909999998,886.0898162999999,1565.4753465,208.9685481,-654.0723579,401.3596509,13.5771051,24.166666666666668,set #1
1970-01-01 00:00:35.757116374,3.6640686988830566,0.36675217747688293,0.9942429661750793,673.78741716,451.82175870000003,715.16610516,1148.35689306,-1196.49924654,-1680.50420226,950.85964896,604.93697784,24.444444444444446,set #1
1970-01-01 00:00:35.757119474,3.669665575027466,0.36863434314727783,1.0026521682739258,674.64097116,452.7829137,716.98685916,1150.19578206,-1201.74509754,-1678.98207126,951.26587296,604.99017384,24.722222222222225,set #1
1970-01-01 00:00:35.767791566,3.675159454345703,0.3705371618270874,1.0112602710723877,-393.68110158,-350.59642332,-1077.84534702,-285.8606205,-695.61583806,-1559.1589689,139.49780909999998,-185.9971074,25.0,set #1
1970-01-01 00:00:35.777333316,3.680575370788574,0.3724665641784668,1.020046591758728,-451.4161782,-338.64175955999997,-969.3339473999999,-246.79286580000002,357.24194688,-2244.8419063200004,53.04859871999997,-406.37205024,25.27777777777778,set #1
1970-01-01 00:00:35.787426052,3.685852289199829,0.3743378818035126,1.0289887189865112,138.73657667999998,547.8913471200001,50.66909952,417.69505752000003,1929.1359609600001,-1683.0439126800002,191.55889428,-286.09263852000004,25.555555555555557,set #1
1970-01-01 00:00:35.797668037,3.691058397293091,0.3761855661869049,1.03802490234375,-132.78497973,56.6710482,354.76151529000003,783.10316487,2382.81422379,-532.3161304500001,609.82372035,289.6675899,25.833333333333336,set #1
1970-01-01 00:00:35.807376680,3.6961722373962402,0.3779270052909851,1.047191858291626,-576.794634,-21.280147200000002,38.7628488,415.71973560000004,2337.9891444,-122.81032920000001,331.69188,80.5019904,26.11111111111111,set #1
1970-01-01 00:00:35.817346391,3.7012102603912354,0.3794592320919037,1.0564523935317993,-836.1418221,-254.72665374000002,-136.56485934,24.700636349999996,4297.15374777,-932.19767667,-37.4441028,-269.49290042999996,26.38888888888889,set #1
1970-01-01 00:00:35.828223047,3.7062482833862305,0.3810463845729828,1.0659229755401611,16.409569020000003,293.72272878,743.94809736,689.59396818,3051.0671903400003,-1130.28307002,187.19710503,-196.68414285,26.666666666666668,set #1
1970-01-01 00:00:35.837239322,3.7111940383911133,0.3824569284915924,1.0753626823425293,-236.89101774,514.12035012,890.7712398,744.9970351200001,2463.96592338,-557.56700142,358.07830188,178.37106455999998,26.944444444444446,set #1
1970-01-01 00:00:35.847337779,3.7159764766693115,0.3836919665336609,1.0848524570465088,580.69556649,1007.75925822,1197.04757874,1325.67752031,3160.92738897,-854.4847985700001,450.72917916,278.25374811,27.222222222222225,set #1
1970-01-01 00:00:35.857894716,3.720719814300537,0.3848060071468353,1.0944315195083618,270.56258892,954.64690308,453.09170088,150.84509856,3425.7417090000004,-864.05623044,238.904367,160.94619996,27.5,set #1
1970-01-01 00:00:35.867207107,3.7253670692443848,0.3858458995819092,1.1040880680084229,-581.1304999500001,46.79007684000001,-873.93427719,-1096.47981729,3908.90393166,-730.73638521,-121.10983755,-141.20729493000002,27.77777777777778,set #1
1970-01-01 00:00:35.878351268,3.729896306991577,0.3873193562030792,1.1140289306640625,112.64344104,337.94743008,-19.03836168,-283.27980252000003,3859.7981916,-30.136254719999997,219.15794784,129.7283286,28.055555555555557,set #1
1970-01-01 00:00:35.887253103,3.7342679500579834,0.38811931014060974,1.1233954429626465,25.68799857,-3.7212200999999965,-381.47180292,-270.48840936,3520.96349436,-64.78441515,102.64817316,-113.94168279000002,28.333333333333336,set #1
1970-01-01 00:00:35.897368011,3.738579273223877,0.38887420296669006,1.1328952312469482,318.45626982,317.03318088000003,535.1125299,1057.56936324,1840.71867564,692.51560053,579.41202579,259.42685613000003,28.61111111111111,set #1
1970-01-01 00:00:35.907902059,3.742765426635742,0.38960927724838257,1.142519474029541,-9.855912689999997,206.69847861,-321.42468189,-116.65308525,1610.8445418,953.45157726,164.27084115,-90.69268962000001,28.88888888888889,set #1
1970-01-01 00:00:35.917282161,3.746767044067383,0.3903326988220215,1.1521124839782715,782.31251397,453.44081523,253.71497229,243.37261884,-1011.4355862,773.0171865000001,451.42259955000003,70.14575958,29.166666666666668,set #1
1970-01-01 00:00:35.927324352,3.750613212585449,0.3909597396850586,1.161702036857605,1599.53777568,1127.5997366400002,324.48132288,40.85528928,-55.38225888,1380.0088848,386.05503455999997,-111.73939296,29.444444444444446,set #1
1970-01-01 00:00:35.937827167,3.75425386428833,0.3916735053062439,1.171385645866394,433.89993230999994,412.62782418,-424.0623504,-493.46751012,-5658.11341602,1464.7625101200001,43.52828063999999,-286.97569212,29.722222222222225,set #1
1970-01-01 00:00:35.947407064,3.757753849029541,0.3922453820705414,1.1809865236282349,665.511756,584.33243544,-775.45766376,-692.40729168,-3446.89156344,-1500.66824856,-67.45691472,-357.69517368,30.0,set #1
1970-01-01 00:00:35.957196292,3.761072874069214,0.3928776681423187,1.1905821561813354,425.1804414,307.54586616,-367.57120452,-406.84058844000003,-1657.62106848,-169.19790732,-92.20883412,-292.73964876,30.27777777777778,set #1
1970-01-01 00:00:35.968776044,3.7642054557800293,0.3935369849205017,1.2002286911010742,305.73623028,469.49989164000004,-604.6148784000001,-606.3312200400001,994.72105044,-593.4492720000001,-230.95140588,-285.24669108,30.555555555555557,set #1
1970-01-01 00:00:35.977135715,3.7672009468078613,0.39416077733039856,1.2098726034164429,-564.3495370500001,-196.39557015,121.16217359999999,353.4349611,1321.6039668,1535.07072615,252.7981287,153.2868324,30.833333333333336,set #1
1970-01-01 00:00:35.987791833,3.7700836658477783,0.39482030272483826,1.2194480895996094,-1764.93715086,-905.6392593300001,-1108.98491574,-378.39643022999996,1819.9782357899999,-155.80175676,-82.57036944,10.026671460000003,31.111111111111114,set #1
1970-01-01 00:00:35.997396764,3.7728798389434814,0.3954869508743286,1.229008674621582,-751.25887356,-338.07973056000003,-1391.97577896,-143.38234404000002,1264.4632010399998,-989.46210324,-413.71907928,-245.7877266,31.38888888888889,set #1
1970-01-01 00:00:36.007166919,3.7756383419036865,0.3962002992630005,1.2385941743850708,-38.35506831,387.38942073,-809.61800556,750.12573402,1115.21060937,-1197.81384957,6.2538758099999985,-46.64411817,31.666666666666668,set #1
1970-01-01 00:00:36.018114862,3.7783265113830566,0.39698082208633423,1.2481627464294434,-389.38080246,-43.17954108000001,-221.48356619999998,1277.54428152,1149.12158634,87.19191000000001,247.3991091,336.36928728,31.944444444444446,set #1
1970-01-01 00:00:36.027489719,3.7808454036712646,0.39771732687950134,1.257628083229065,-823.0603836,-117.55452384,422.34662027999997,1561.7071626,1524.4866039,-1696.10732148,278.31726351000003,340.80186504000005,32.22222222222222,set #1
1970-01-01 00:00:36.037208137,3.7832603454589844,0.39836403727531433,1.2669684886932373,533.11038885,1224.24834441,723.17001393,1721.96093277,-915.40297251,-822.15198117,183.78421542,196.04324103,32.5,set #1
1970-01-01 00:00:36.047293958,3.785475969314575,0.3989126980304718,1.2762185335159302,-1998.08695164,-1531.02858402,-1927.4090472,-1010.8084412400001,-1424.08182462,-1626.46296852,-386.3875548,-267.22731984,32.77777777777778,set #1
1970-01-01 00:00:36.057356176,3.7875750064849854,0.39937177300453186,1.2853509187698364,-3.6271372799999995,196.28349936,577.11651504,386.88560352,-3069.0043800000003,-177.42228192,-124.8280488,20.540657280000005,33.05555555555556,set #1
1970-01-01 00:00:36.067194519,3.789740800857544,0.39971986413002014,1.294093132019043,-1008.4379136,-865.82115555,-68.1160701,-582.27920049,2321.2079116200002,-3112.48744521,-410.45781114,-94.58075718,33.333333333333336,set #1
1970-01-01 00:00:36.077446279,3.7916505336761475,0.40006300806999207,1.302754521369934,125.3042739,34.32606332999999,1272.9865090800001,685.24026987,4374.79380195,-2916.98388384,386.60600121,626.0611012500001,33.611111111111114,set #1
1970-01-01 00:00:36.087405023,3.793379068374634,0.40026816725730896,1.3113511800765991,-234.08407698000002,-298.14568563,1198.18464402,627.81978324,2309.50514886,-1197.00628242,498.27507951,611.22601839,33.88888888888889,set #1
1970-01-01 00:00:36.097930250,3.794865608215332,0.4004676640033722,1.3199681043624878,634.353525,-10.951882499999996,520.945035,-72.66129000000001,-2644.94685,4396.575885,24.254099999999994,342.94455000000005,34.16666666666667,set #1
1970-01-01 00:00:36.107335863,3.7960498332977295,0.4006856679916382,1.328761100769043,1153.85366187,-486.99066663,538.74660138,95.12346090000001,-1419.2218388400001,2041.0941786300002,140.20374458999999,251.44219503000002,34.44444444444444,set #1
1970-01-01 00:00:36.117058095,3.79746413230896,0.4007602035999298,1.3370361328125,2239.0093206,149.76926250000002,1768.4510142000001,1073.6529687,-321.50226614999997,2174.6440833,622.8073917,721.8313401,34.72222222222222,set #1
1970-01-01 00:00:36.128336009,3.7986440658569336,0.40096449851989746,1.345345377922058,404.03201358,-810.4516847699999,-79.36037537999997,-672.94845072,1318.5716555699998,1071.23336268,-116.19088845,-23.211231419999997,35.0,set #1
1970-01-01 00:00:36.137322483,3.79970383644104,0.4011209309101105,1.3536447286605835,1930.35886797,443.83828983,756.5673648000001,421.33830102,132.76221933,4234.58916075,337.67209437,302.83736106000003,35.27777777777778,set #1
1970-01-01 00:00:36.147239742,3.8006911277770996,0.4011676609516144,1.3617990016937256,2439.03350964,670.9854216,1940.1789849000002,1425.4685757,1069.39966926,4041.6669243600004,403.47378863999995,338.30287295999995,35.55555555555556,set #1
1970-01-01 00:00:36.157418785,3.8015542030334473,0.401110976934433,1.369912028312683,-210.31283130000006,-925.48385865,-1760.9196423,-2059.569915,-667.74141525,4795.39404435,-790.00414545,-573.7885491,35.833333333333336,set #1
1970-01-01 00:00:36.167598781,3.802382707595825,0.4009675979614258,1.3779205083847046,-481.06122948,-1154.83131153,-1989.0406559399999,-1843.98344286,681.32680317,3652.26581967,-591.082869,-413.74180341000005,36.111111111111114,set #1
1970-01-01 00:00:36.177212057,3.8032824993133545,0.4005569517612457,1.3857649564743042,923.14930695,1548.5025098400001,1021.2029864400001,1036.3557477,538.8568867500001,3740.82546786,389.92278312,319.6201749,36.38888888888889,set #1
1970-01-01 00:00:36.187047777,3.8040552139282227,0.40012988448143005,1.393505334854126,690.38088756,1535.56535652,-451.164909,-448.38781611,290.54911587000004,3960.98221038,-272.39067023999996,-65.20142265,36.66666666666667,set #1
1970-01-01 00:00:36.197059450,3.804788827896118,0.3996050953865051,1.4010707139968872,-1258.207509,417.3280215,-491.03954250000004,-259.57990500000005,962.335101,1007.4036960000001,26.242827000000002,68.30694,36.94444444444444,set #1
1970-01-01 00:00:36.207007703,3.8054466247558594,0.399016797542572,1.4084402322769165,-1288.18721187,-1.1962243799999999,-1898.4164577299998,-1548.9054644700002,787.77648612,-479.75134194,-487.69992414,-463.26102342,37.22222222222222,set #1
1970-01-01 00:00:36.217444715,3.80601167678833,0.3983510136604309,1.4156907796859741,-707.1779793000001,552.00310815,-789.72492105,-548.42937435,-357.52297035000004,2423.2509288,77.17335990000001,58.57417995,37.5,set #1
1970-01-01 00:00:36.227337656,3.80649995803833,0.39765530824661255,1.4227900505065918,-467.21551344,524.96342496,-475.19370912,-519.15392568,-928.30392408,299.08310952000005,377.92159704,530.3664600000001,37.77777777777778,set #1
1970-01-01 00:00:36.237218437,3.80692458152771,0.3969564437866211,1.4297343492507935,-2275.2251066999997,-1418.3877045,-1701.4134064200002,-1607.4363559800001,814.2821193000001,248.93685063,16.401196889999966,58.82834529,38.05555555555556,set #1
1970-01-01 00:00:36.247571763,3.8072285652160645,0.3963733911514282,1.436266303062439,-1333.00696776,-543.34914738,-1454.1573774,-1468.32758748,990.67665879,-689.99733192,-10.396453079999999,-301.8073617,38.333333333333336,set #1
1970-01-01 00:00:36.257386741,3.8075203895568848,0.3957442343235016,1.4431284666061401,-1123.7065600800001,-580.4193076500001,-1596.73456332,-1582.26691506,1212.3008909700002,-68.76270531,-20.839144949999998,-128.99513523,38.611111111111114,set #1
1970-01-01 00:00:36.267379579,3.80771803855896,0.3951434791088104,1.4498294591903687,-351.46526531999996,-195.84252597,-460.31924679,-473.34501123000007,1631.18411547,-2534.66741073,235.73511741,-8.22539562,38.88888888888889,set #1
1970-01-01 00:00:36.277380046,3.807783365249634,0.39457735419273376,1.4563512802124023,252.91156722000005,204.86778312,-46.37272847999998,-183.64620222,312.00204126,240.73816338,336.20765178,228.94235676,39.16666666666667,set #1
1970-01-01 00:00:36.287500677,3.807723045349121,0.3941046893596649,1.46262526512146,308.68367985,-6.4006761,82.8644388,-324.27259059000005,499.89562857000004,269.57727576,272.00229342000006,126.29293638,39.44444444444444,set #1
1970-01-01 00:00:36.297637758,3.8076114654541016,0.3936014473438263,1.4687739610671997,-82.59049422,-31.349656260000003,-73.0461654,-547.18620996,126.0896364,1668.37203468,266.51888094000003,371.2478016,39.72222222222222,set #1
1970-01-01 00:00:36.307641086,3.8074581623077393,0.39313802123069763,1.4747588634490967,-1426.5605094,-763.0072749000001,-632.4078914400001,-712.13828712,39.397406100000005,2653.98396822,34.39105878000001,-71.48035361999999,40.0,set #1
1970-01-01 00:00:36.317323741,3.807323694229126,0.3925997316837311,1.480602741241455,-568.0041357900001,-237.58856160000002,-181.16202429000003,-570.0902216100001,-538.6853967300001,3106.9995329099997,99.00248006999999,56.44758872999999,40.27777777777778,set #1
1970-01-01 00:00:36.327486572,3.8071234226226807,0.3921518623828888,1.486209511756897,-433.37222604,-120.98469396,141.09593784,-164.37603156000003,-60.528854880000004,2062.0809378,289.30608096,39.642003960000004,40.55555555555556,set #1
1970-01-01 00:00:36.337413368,3.806853771209717,0.39174148440361023,1.491601586341858,340.29167952,304.1763192,-411.54632375999995,-402.23136095999996,-226.86143687999999,1089.01589784,209.25714264,50.1430956,40.833333333333336,set #1
1970-01-01 00:00:36.347792921,3.8065147399902344,0.3913963735103607,1.496912956237793,330.99163383,410.5871757,718.3672988700001,736.5709989300001,-147.00381501,288.19000548,435.20413794,113.81923371,41.111111111111114,set #1
1970-01-01 00:00:36.357062635,3.8061888217926025,0.3909909129142761,1.5019786357879639,-864.6371487,-687.70139295,-347.54894265,-858.08716305,-161.0278839,216.03472994999998,-26.518732500000002,-4.654306799999997,41.38888888888889,set #1
1970-01-01 00:00:36.367343721,3.8058581352233887,0.39061006903648376,1.5069009065628052,723.70576785,788.02983207,601.44110052,678.8317933799999,-421.55498697,-301.39725954,419.16619173,204.67617378,41.66666666666667,set #1
1970-01-01 00:00:36.377218780,3.8055100440979004,0.39017266035079956,1.511657476425171,-293.2052604,31.309488599999998,-263.9535756,-197.342808,2.6669682000000012,-186.15306840000002,168.7193976,-175.1496162,41.94444444444444,set #1
1970-01-01 00:00:36.387266454,3.8051323890686035,0.38974490761756897,1.5161100625991821,118.69291980000003,113.69403239999997,133.03870944000005,173.66445252,-222.12903101999999,-512.81850438,125.03199461999999,-331.54046796,42.22222222222222,set #1
1970-01-01 00:00:36.397303876,3.8047826290130615,0.3892457187175751,1.5203429460525513,-707.01616284,-321.78262896,-338.1964794,-273.23216076,-232.28157732,-903.64149096,430.50438132,208.67691468000004,42.5,set #1
1970-01-01 00:00:36.407177982,3.8044536113739014,0.38876962661743164,1.5242410898208618,-50.52445788000001,177.42022974,136.00467192,7.316521680000001,-16.29120324,-1841.4308616600001,224.69858657999998,-60.76854030000001,42.77777777777778,set #1
1970-01-01 00:00:36.417230663,3.804157257080078,0.3882748782634735,1.5279157161712646,-1393.17319479,-861.94362813,-2233.29565719,-2190.94349214,-897.93729168,-227.74922352000002,-331.92823989,-344.27410992,43.05555555555556,set #1
1970-01-01 00:00:36.427461442,3.8038759231567383,0.3877514600753784,1.5313996076583862,181.1409366,53.876846400000005,176.82123108,284.06768442000003,-422.93519502000004,-2274.26042376,407.23506485999997,154.38314970000002,43.333333333333336,set #1
1970-01-01 00:00:36.437352952,3.8036270141601562,0.3871556520462036,1.5345662832260132,1663.35459264,1222.20839208,2740.2208048800003,2485.42882848,-74.99491272,-3446.7969744,721.99461984,307.24127616,43.611111111111114,set #1
1970-01-01 00:00:36.447199640,3.8034262657165527,0.38653406500816345,1.537463903427124,1242.5864880000001,884.7425028,1737.812388,1515.5390327999999,-197.81906039999998,-3727.5056676000004,585.2435628000001,302.3378124,43.88888888888889,set #1
1970-01-01 00:00:36.457396087,3.8032548427581787,0.3859291672706604,1.540076494216919,126.19956101999998,124.96259217,-967.92086313,-761.75719932,594.76221636,-4849.20167628,-331.96885995,-435.29511675000003,44.16666666666667,set #1
1970-01-01 00:00:36.467514810,3.803131341934204,0.38527166843414307,1.542517900466919,563.3743284,618.6968228999999,821.6584935,717.0194811,-124.0511337,-3809.8742175,660.5489904,344.57139600000005,44.44444444444444,set #1
1970-01-01 00:00:36.477292833,3.803072452545166,0.3846612572669983,1.544673204421997,-581.99995113,-462.71585373,-356.2197128099999,-769.2462226800001,52.30042311,-4111.28330301,165.25486926000002,55.55024202000001,44.72222222222222,set #1
1970-01-01 00:00:36.487160024,3.803032159805298,0.38409727811813354,1.546614408493042,-2550.4203441600002,-2162.34998616,-2500.4785821600003,-2399.3152497600004,-1029.2563476,-3030.6038568,-598.5350592000001,-668.63688216,45.0,set #1
1970-01-01 00:00:36.497354087,3.8030195236206055,0.3835335671901703,1.5483688116073608,-878.15155428,-681.21525654,-992.02861719,-929.0550824100001,-1450.90458396,-1940.4852210899999,-145.78939167000001,-362.82066327,45.27777777777778,set #1
1970-01-01 00:00:36.507184562,3.803016424179077,0.3829776644706726,1.5499569177627563,412.71447438,412.39510026,213.86666496,386.32791288,-1688.32291992,-1005.21550194,367.24375272,149.09250096,45.55555555555556,set #1
1970-01-01 00:00:36.517276821,3.803041934967041,0.3824542760848999,1.5512856245040894,131.00647365,43.53851345999999,-230.25326532,-235.95087672,-2269.87657611,-3827.35450734,-199.2357159,-340.37338023,45.833333333333336,set #1
1970-01-01 00:00:36.528162775,3.803090810775757,0.38200196623802185,1.5522993803024292,-1103.448177,-992.464278,-1105.95654,-999.76752525,708.71454225,-4073.9936152500004,-463.27902075,-506.131041,46.111111111111114,set #1
1970-01-01 00:00:36.537625608,3.803191661834717,0.3815869688987732,1.5530964136123657,402.43860072,436.64165687999997,179.83224167999998,254.42054976,-2502.4057187999997,2477.52196848,-2.497113840000001,-98.49463728,46.38888888888889,set #1
1970-01-01 00:00:36.547609386,3.803316354751587,0.3811699151992798,1.5537190437316895,-1529.6370897600002,-1443.3412695,-2546.44800306,-2011.26810066,-672.7584185400001,4831.583146260001,-506.30751756,-536.55095754,46.66666666666667,set #1
1970-01-01 00:00:36.557443675,3.8034565448760986,0.3807848393917084,1.5540826320648193,697.3277415,477.561123,425.02797675,423.40171575,513.8530995,4763.33608725,470.79590025,153.2260665,46.94444444444445,set #1
1970-01-01 00:00:36.567565021,3.8035976886749268,0.38046589493751526,1.5540701150894165,252.19018227,-57.5442543,349.86277559999996,385.63159206,817.4564264100001,2683.99233141,334.44601593000004,-0.2956137599999997,47.22222222222222,set #1
1970-01-01 00:00:36.577321825,3.803771495819092,0.3801434338092804,1.5537819862365723,-440.3202277500001,-776.90805075,-80.62322775000007,-607.0946700000001,1440.0495037500002,5377.2204915,80.99308425000001,288.71736075,47.5,set #1
1970-01-01 00:00:36.587895450,3.8039729595184326,0.3797975480556488,1.5532124042510986,657.5957115000001,218.1010065,263.005743,532.6681035,1240.3464645,3008.812092,267.455448,-59.75794499999999,47.77777777777778,set #1
1970-01-01 00:00:36.598075685,3.8041939735412598,0.37948158383369446,1.552371859550476,-232.6900368,-474.91863315,-945.83533785,-766.7792691,1383.4531503,3716.76344325,-259.74067275,-398.30874135,48.05555555555556,set #1
1970-01-01 00:00:36.607385454,3.8044557571411133,0.379149854183197,1.5512323379516602,222.93246846,-19.86943998,393.31925178,305.86489674,1654.39001832,3481.18898322,4.911751260000003,-64.60819482,48.333333333333336,set #1
1970-01-01 00:00:36.617387351,3.804703950881958,0.37883758544921875,1.549843430519104,769.63387995,284.72285985,1014.80983305,849.92305047,1603.6761772200002,3094.86809034,433.16974584,153.6153177,48.611111111111114,set #1
1970-01-01 00:00:36.627388772,3.804996967315674,0.37849950790405273,1.5482358932495117,26.665466879999997,-290.51564724,85.7055966,-47.951797920000004,1573.46074392,1454.1033624,-84.42638412,-191.57101391999998,48.88888888888889,set #1
1970-01-01 00:00:36.637499628,3.805351734161377,0.378120481967926,1.5463871955871582,-170.85670524,-520.6970059199999,-323.50108284,-242.56897392000002,1931.31960684,1457.24892768,71.34997896,-16.983715319999998,49.16666666666667,set #1
1970-01-01 00:00:36.647419986,3.8058130741119385,0.37772899866104126,1.5442261695861816,796.70704308,405.62302872,1460.81109642,1370.64151302,1542.1380819,1562.33073126,585.72658482,405.1332831,49.44444444444445,set #1
1970-01-01 00:00:36.657312927,3.806377410888672,0.3773212432861328,1.5419164896011353,383.82794424,-53.89141641,573.49703502,576.93807327,1807.01048307,923.01451476,188.47328526,7.86629727,49.72222222222222,set #1
1970-01-01 00:00:36.667337474,3.806997776031494,0.37694719433784485,1.5394198894500732,359.11897632,39.30725916,365.37474948,405.81120138,1145.66700144,463.58485212,186.4729074,184.41026526000002,50.0,set #1
1970-01-01 00:00:36.677301464,3.8076701164245605,0.376600056886673,1.5367754697799683,157.47272424,-137.22133152,-420.177576,-234.86494512000002,1626.76527312,586.43974896,-36.60774,100.4943888,50.27777777777778,set #1
1970-01-01 00:00:36.687370595,3.808375358581543,0.3763393461704254,1.533898115158081,350.0029377,-268.1440242,-191.39163225000004,-70.5786003,1404.6575517,1091.8780002,13.999116300000011,-0.4053133500000001,50.55555555555556,set #1
1970-01-01 00:00:36.697473344,3.8090708255767822,0.3761095404624939,1.5308738946914673,849.76178976,493.87701792,488.98314816000004,568.2561456,787.3164374400001,1029.00995808,266.83560384000003,304.6164576,50.833333333333336,set #1
1970-01-01 00:00:36.707854804,3.809729814529419,0.3759694993495941,1.527622938156128,444.33518376,25.24397148,82.31242188,68.0335656,893.46487932,871.99101756,-32.670608879999996,30.94795392,51.111111111111114,set #1
1970-01-01 00:00:36.717314062,3.8103415966033936,0.37586814165115356,1.524247169494629,597.44536254,63.03503076,334.34097996,335.15814774,720.24832308,1416.9492713999998,117.47954166,113.18044296000001,51.38888888888889,set #1
1970-01-01 00:00:36.727577028,3.8109631538391113,0.3758242726325989,1.5206260681152344,355.3637724,-134.40550656,230.05201284,372.12167772,690.0550254000001,1710.33343728,96.78752928,36.77232468,51.66666666666667,set #1
1970-01-01 00:00:36.737590370,3.811551094055176,0.3759378492832184,1.5167423486709595,-361.8408144,-630.0663681,-1342.8390066,-1187.4780294,611.3937297,1196.122785,-557.7999999,-339.886482,51.94444444444445,set #1
1970-01-01 00:00:36.747496662,3.8120930194854736,0.3761259913444519,1.5126556158065796,-19.143910500000004,-485.12333922,587.13288426,390.36904452,998.75457786,1727.9864004,-82.98332406,-210.6455637,52.22222222222222,set #1
1970-01-01 00:00:36.757269916,3.81258225440979,0.37645724415779114,1.5083327293395996,73.998405,-168.52804332,-337.83549228,-293.684742,442.4871126,889.8089226000001,-310.84494012,-352.79753496,52.5,set #1
1970-01-01 00:00:36.767609176,3.813004493713379,0.37687912583351135,1.5037747621536255,-242.22695328,-246.15843096,-190.94494536,-132.04815312,37.83233376,421.45547184,-144.88850064,-163.06359576,52.77777777777778,set #1
1970-01-01 00:00:36.777195510,3.813382863998413,0.37742507457733154,1.498995304107666,126.6360069,-173.53011,-205.8644016,89.36542680000001,67.7189799,353.7088347,-184.9875066,-259.1163237,53.05555555555556,set #1
1970-01-01 00:00:36.787846145,3.813727617263794,0.37802743911743164,1.4940948486328125,-96.9001449,-71.97070725,-321.4236363,-171.46832235000002,-326.33876145,491.8343859,48.41874764999999,101.92369590000001,53.333333333333336,set #1
1970-01-01 00:00:36.797738370,3.8140246868133545,0.37871643900871277,1.4889986515045166,-136.6824108,-361.02066390000005,211.5523566,52.7224308,-217.0395708,1468.6650381000002,-17.581995600000003,6.722753699999998,53.611111111111114,set #1
1970-01-01 00:00:36.807494935,3.8142929077148438,0.37951236963272095,1.483652114868164,225.59159219999998,78.2463591,112.53557640000001,25.521559049999993,293.83197870000004,-143.9210292,-107.65270815,-86.5393737,53.88888888888889,set #1
1970-01-01 00:00:36.817482290,3.8145406246185303,0.3803074061870575,1.4781337976455688,259.81806240000003,6.641079900000001,78.1240122,192.43223999999998,45.83238660000001,757.5203922000001,56.267296800000004,103.3456593,54.16666666666667,set #1
1970-01-01 00:00:36.827393112,3.8147668838500977,0.38114482164382935,1.472484827041626,273.41873832,104.25693408000001,557.95525968,357.11772408,-335.35740576,1607.81063664,113.52055416,87.57073104,54.44444444444445,set #1
1970-01-01 00:00:36.837376413,3.8149290084838867,0.382010281085968,1.4666591882705688,-414.30755301,-473.97975729,-505.00443825,-531.49005546,-45.875107979999996,-140.68126215,-331.62387258,-211.05244797,54.72222222222222,set #1
1970-01-01 00:00:36.847412643,3.8150534629821777,0.38291028141975403,1.4606648683547974,194.05188465,70.32376142999999,233.83895418,225.62936916,307.59304602000003,-676.80646917,116.63552315999999,183.75318468,55.0,set #1
1970-01-01 00:00:36.857178506,3.8151602745056152,0.3838389813899994,1.454541563987732,232.17129234,30.654966419999994,162.33823242,128.24915298,116.84405538,-1405.2171112199999,79.64839038,260.39882388,55.27777777777778,set #1
1970-01-01 00:00:36.867556629,3.8152573108673096,0.38470831513404846,1.448317289352417,325.0834353,216.43011818999997,14.82909987,68.91360216,-1587.2538786,-1748.32707348,3.0941469,33.5917062,55.55555555555556,set #1
1970-01-01 00:00:36.877312240,3.8153326511383057,0.3855534791946411,1.442008376121521,-319.1583408,-422.6434368,-382.2728832,-376.4224152,-372.0245568,-3095.3039208,-169.2866448,-37.364683199999995,55.833333333333336,set #1
1970-01-01 00:00:36.887178239,3.8154029846191406,0.38632887601852417,1.435489296913147,248.12251191,196.45923648000002,55.31288841000001,197.8045641,-381.95182232999997,-2583.9392615399997,107.22865920000001,184.21946634,56.111111111111114,set #1
1970-01-01 00:00:36.897390899,3.8154780864715576,0.3871088922023773,1.4287968873977661,-50.22490122,-161.13393231,-343.12407753,-171.20549823,44.96267139,-2806.9480389600003,-60.010828020000005,58.15211649,56.38888888888889,set #1
1970-01-01 00:00:36.907414255,3.815580368041992,0.387838751077652,1.4218367338180542,487.4345697,367.47445215,497.92338960000006,633.4379415,-988.0215306,-1546.4753772,185.83164599999998,276.77939445000004,56.66666666666667,set #1
1970-01-01 00:00:36.917203483,3.8156278133392334,0.3885250389575958,1.4147313833236694,-345.26277708000003,-502.98596166,-289.55103918,-77.3374251,244.6018458,-4333.3416321,-2.815609679999998,48.814351560000006,56.94444444444445,set #1
1970-01-01 00:00:36.927256641,3.8156518936157227,0.3891187310218811,1.407434344291687,15.53849738999999,49.55338518,-55.55696367,-20.246423730000004,-76.93393734,-2524.73735085,25.65828408,113.93964504000002,57.22222222222222,set #1
1970-01-01 00:00:36.937590894,3.8155951499938965,0.38963407278060913,1.400125503540039,-518.3425353599999,-485.81324298,-636.2104125000001,-501.19964466,85.26768744,-4290.3509259,-167.9098434,-19.1610042,57.5,set #1
1970-01-01 00:00:36.947468576,3.8155665397644043,0.3900672495365143,1.392562747001648,197.01872736,141.4818912,607.36435968,708.12971424,-274.55891424,-3447.2314032,213.3251952,285.93515808,57.77777777777778,set #1
1970-01-01 00:00:36.957315979,3.815481662750244,0.39037373661994934,1.3848624229431152,-312.5166837,-278.53981389,-269.12732652,-68.17439928,-248.99993235,-4881.79319784,-137.43860403000002,-91.45397625,58.05555555555556,set #1
1970-01-01 00:00:36.968082723,3.8153226375579834,0.39062264561653137,1.3770002126693726,45.86246301,-47.48943849,20.14322505,41.71429002,162.5974077,-4518.93571272,-98.23774077,43.669160729999994,58.333333333333336,set #1
1970-01-01 00:00:36.977268753,3.8150904178619385,0.3908074200153351,1.3690316677093506,-497.07801741000003,-378.40304658,-279.17776926,9.266548979999982,1274.37158511,-4495.4254671300005,-190.04478363,-13.555062689999998,58.611111111111114,set #1
1970-01-01 00:00:36.987452802,3.8147804737091064,0.39095908403396606,1.3609727621078491,467.44379994,349.2605415,-284.81855298000005,-87.14493996,666.96041802,-3870.8282425800003,-78.34691904,291.60547806,58.88888888888889,set #1
1970-01-01 00:00:36.997604665,3.8143227100372314,0.3910951018333435,1.352855920791626,-610.3028451,-385.72139385,-1169.86909455,-951.7734876,423.16190475,-2721.89047845,-559.3742661,-341.18676345,59.16666666666667,set #1
1970-01-01 00:00:37.007226524,3.8137056827545166,0.3912562429904938,1.3446521759033203,-225.62913828,-62.476128,-314.92016868,-334.03755372,690.86152824,1307.984886,-111.74977007999999,77.26466592,59.44444444444445,set #1
1970-01-01 00:00:37.017413911,3.8129796981811523,0.39138612151145935,1.3364341259002686,-273.95276961,-191.94091995000002,-65.48067474000001,-38.45327265,-313.93399908,5485.8336195,-406.64171183999997,-192.94772367,59.72222222222222,set #1
1970-01-01 00:00:37.027592000,3.8121800422668457,0.391438364982605,1.3281761407852173,-331.63572000000005,-299.988,-197.29788,-287.2974,-1268.79324,4827.421560000001,-392.67384,-163.25244,60.0,set #1
1970-01-01 00:00:37.037405786,3.811307430267334,0.3914058208465576,1.319844126701355,-433.04927172,-368.41660674,-787.6499241,-561.2553375,-1531.55217462,2913.2210211,-258.9261519,-73.13368608,60.27777777777778,set #1
1970-01-01 00:00:37.047406730,3.81021785736084,0.3913830816745758,1.3115572929382324,-78.3580395,-56.486944799999996,217.7348394,419.2879509,-2514.1592385,2173.14747,-48.4304652,136.2041499,60.55555555555556,set #1
1970-01-01 00:00:37.056966123,3.809235095977783,0.3911682069301605,1.303118109703064,-351.11645712,-226.08965262,-262.402218,-95.6206992,-1778.99601204,-648.0011655000001,-126.81091878000001,74.9739549,60.833333333333336,set #1
1970-01-01 00:00:37.067485628,3.80808424949646,0.3909323811531067,1.2949508428573608,-933.11155392,-698.3300922,-57.85951704,21.522582120000003,-2485.71723348,-2030.8763420399998,-100.47572964,40.06086395999999,61.111111111111114,set #1
1970-01-01 00:00:37.077320394,3.806990146636963,0.3905673921108246,1.2868671417236328,-299.03690466,-174.32209002000002,-264.59104307999996,-108.03677508000001,-1341.72676092,-3910.49746074,-29.26694628,77.07064404,61.38888888888889,set #1
1970-01-01 00:00:37.087338743,3.8058042526245117,0.39016011357307434,1.2787864208221436,-571.84892349,-531.62115396,-190.20739764,-133.71787065,-1302.43595742,-3060.44835915,-192.34836894,-103.52209998000001,61.66666666666667,set #1
1970-01-01 00:00:37.097479162,3.80460524559021,0.3897632360458374,1.2707176208496094,-369.76876092000003,-308.84779848,18.41873982,13.1297088,-547.1544889200001,-3729.90319962,26.37314939999999,103.24391453999999,61.94444444444445,set #1
1970-01-01 00:00:37.107610044,3.803330898284912,0.38937267661094666,1.262683391571045,-1067.2961832,-758.0437394400001,-464.03726616,-442.73302944,-292.40862144000005,-3777.34726044,-56.94437268,-29.716396319999998,62.22222222222223,set #1
1970-01-01 00:00:37.117702779,3.801957368850708,0.388974666595459,1.2546874284744263,-183.70617135,-42.524984579999995,432.16674111000003,264.07767048,-585.3509656800001,-3747.86308182,221.08995051,220.13662671,62.5,set #1
1970-01-01 00:00:37.127688465,3.800504446029663,0.3886864483356476,1.2467477321624756,-1021.6535238,-733.0444914000001,-1017.0105308999999,-1567.2100314000002,-118.7121468,-1620.52013955,-65.59845630000001,-22.64301975,62.77777777777778,set #1
1970-01-01 00:00:37.137376604,3.79890513420105,0.38842812180519104,1.2388272285461426,-612.0917322,297.52088652,-198.03707664,-597.9145161600001,-1499.55785616,-1809.1743867599998,64.20446292,259.26125784,63.05555555555556,set #1
1970-01-01 00:00:37.147541341,3.7972867488861084,0.38820722699165344,1.2309826612472534,-872.22833724,80.66871969,-170.97473055,-374.04400956,-1706.64,-2736.51754194,-22.94526858,289.85061494999997,63.333333333333336,set #1
1970-01-01 00:00:37.159619626,3.795607328414917,0.3879786431789398,1.2231396436691284,-1504.5381117,-195.4648059,192.39718212,78.63639108,-2039.641656,-2180.7640974600004,212.78289552,801.99097212,63.611111111111114,set #1
1970-01-01 00:00:37.167408046,3.7937123775482178,0.38785994052886963,1.2153987884521484,-807.31793064,-22.35999948,-305.06741616,-430.38517314,-1943.14586154,-2161.0236172200002,140.57706546000003,118.03103676,63.88888888888889,set #1
1970-01-01 00:00:37.177482185,3.791827917098999,0.3877507746219635,1.207642674446106,69.2709186,8.06360294999999,330.6149067,292.2119616,-1332.65498535,-1606.0264428,21.894752099999977,268.7073285,64.16666666666667,set #1
1970-01-01 00:00:37.187287864,3.78987193107605,0.3876597285270691,1.199974775314331,958.53250896,628.41720864,701.31767472,645.12132048,-685.1167814400001,-1801.18413384,90.47413128,-146.68485624,64.44444444444444,set #1
1970-01-01 00:00:37.197265920,3.7879014015197754,0.38755038380622864,1.1924201250076294,-461.7014064,-368.8680528,162.7315872,352.5296112,-27.303868800000004,-1102.5323088,-162.5667888,307.68747360000003,64.72222222222223,set #1
1970-01-01 00:00:37.207317171,3.7857251167297363,0.3875528573989868,1.1850109100341797,-818.67482814,-978.6371021699999,-458.51608530000004,-242.10234087000003,196.97758274999998,-823.56184755,-111.78824475,4.23206238,65.0,set #1
1970-01-01 00:00:37.217547235,3.783540964126587,0.3874838948249817,1.1775604486465454,247.2375321,592.71238065,496.493361,945.39279705,542.987835,-118.89204015,49.474284600000004,-59.167676099999994,65.27777777777779,set #1
1970-01-01 00:00:37.227239427,3.7813358306884766,0.38748735189437866,1.1702160835266113,268.62061200000005,485.73701943000003,5.4403131899999995,412.75540683,641.00916126,-57.3824082,-228.70174587,-172.97696910000002,65.55555555555556,set #1
1970-01-01 00:00:37.236940441,3.7789485454559326,0.3872949779033661,1.1629880666732788,560.82172926,305.42620836000003,-342.9448035,210.91224609,663.26641329,1099.6585910699998,-621.3098973900001,-629.01153276,65.83333333333334,set #1
1970-01-01 00:00:37.247453269,3.7766013145446777,0.3870435357093811,1.1557446718215942,809.55948801,544.07704143,193.70388297,777.01835835,149.32686912,2821.4356747200004,-204.82683312,49.566111660000004,66.11111111111111,set #1
1970-01-01 00:00:37.267571506,3.7741551399230957,0.38694265484809875,1.1486917734146118,-1124.24046852,-325.32188988,-609.6969652800001,-105.53344152,-630.51694134,4215.0063072,-345.3764808,446.80393056,66.38888888888889,set #1
1970-01-01 00:00:37.267590103,3.77165150642395,0.38671985268592834,1.1416975259780884,-1113.20166126,-320.11435794000005,-606.73781064,-101.38482276,-616.74381717,4201.0808736,-346.24682040000005,440.88562128,66.66666666666667,set #1
1970-01-01 00:00:37.277931032,3.7691216468811035,0.3864476680755615,1.1348458528518677,-16.844143680000002,211.58160504,-17.47608096,592.2152808,420.67596168,1561.5585959999999,-311.09872248,-47.88287088,66.94444444444444,set #1
1970-01-01 00:00:37.287326869,3.7664389610290527,0.38623061776161194,1.128066897392273,-134.58792984000002,-283.34530497000003,-201.52904927999998,78.06423105,1687.28644383,-1825.11219033,-330.06967227,188.72755356,67.22222222222223,set #1
1970-01-01 00:00:37.297387180,3.763723850250244,0.3858984708786011,1.1213287115097046,365.2839918,129.5419944,154.3930206,396.5360412,1691.6369184,-3523.5880056,-281.61196440000003,-210.885012,67.5,set #1
1970-01-01 00:00:37.307324943,3.760913848876953,0.3856847882270813,1.1148741245269775,-31.11120519,-411.1586115,-340.66281248999996,-164.23556214,3427.1911202100005,-2533.48019145,-331.85877153,-194.8076676,67.77777777777779,set #1
1970-01-01 00:00:37.317218360,3.7580668926239014,0.3851867914199829,1.1083736419677734,285.1466592,-135.9250776,319.19172480000003,654.970602,781.5523092000001,137.848698,39.5120076,184.052544,68.05555555555556,set #1
1970-01-01 00:00:37.327134189,3.7550933361053467,0.38487911224365234,1.1019530296325684,-175.60216986,-414.81574914000004,-265.3381224,4.007847090000002,-2677.82737326,3822.16928964,-170.34649904999998,-210.73152165,68.33333333333334,set #1
1970-01-01 00:00:37.337578353,3.7519493103027344,0.38441821932792664,1.0955475568771362,-98.69642562000001,-38.57842794,44.0901903,242.15347923,-3108.58795962,5657.00488002,82.01782641,128.19887886,68.61111111111111,set #1
1970-01-01 00:00:37.347390470,3.748798370361328,0.3838687837123871,1.0892361402511597,-45.5015964,230.4805815,-160.1649582,-48.8144085,-3131.2670298000003,5859.0329811,-27.2944503,131.5977585,68.88888888888889,set #1
1970-01-01 00:00:37.357130107,3.745651960372925,0.38327500224113464,1.0828657150268555,-118.18896960000001,319.0346055,-397.09938567,-251.69985516,-3364.11363366,5883.01124307,-143.99981817000003,-71.67113108999999,69.16666666666667,set #1
1970-01-01 00:00:37.367166576,3.74228835105896,0.3825017511844635,1.0766723155975342,-379.99682448000004,31.58352912,-200.65309056,155.47816128,-2968.21389696,4867.978408800001,-212.74850064,-23.987545920000002,69.44444444444444,set #1
1970-01-01 00:00:37.377334890,3.738969564437866,0.381987601518631,1.0704113245010376,-41.889627000000004,170.7320511,-131.3976222,113.0649897,-1533.2887830000002,3846.830559,39.1744392,31.862262900000005,69.72222222222223,set #1
1970-01-01 00:00:37.387247619,3.735485315322876,0.38120585680007935,1.064322829246521,-100.71656946,6.04685913,74.26529097,362.70000585,2926.01944947,492.58858545,118.52657271,-43.605714750000004,70.0,set #1
1970-01-01 00:00:37.397156057,3.732006311416626,0.38038507103919983,1.058304786682129,3.5315837699999992,-103.92740397,-170.95089492,103.47135435,237.78272271,1346.26471395,49.53324285,43.70806947,70.27777777777779,set #1
1970-01-01 00:00:37.407370386,3.7284514904022217,0.3795729875564575,1.0523579120635986,-19.88230842,-181.28472570000002,-285.19944882,-28.131866099999996,1210.2357914400002,1532.12257068,-220.51016285999998,-87.16598748,70.55555555555556,set #1
1970-01-01 00:00:37.417321262,3.724843740463257,0.3787427246570587,1.0464106798171997,417.40202088,194.89562586,171.56351472,334.99491402,1474.12333848,1638.64058436,153.76250214,38.92526352,70.83333333333334,set #1
1970-01-01 00:00:37.427208957,3.7211549282073975,0.3781031370162964,1.0405884981155396,247.08524567999999,87.07159967999999,340.68802521,99.72908712,-372.05323427999997,1252.09208124,144.7364217,108.10843524,71.11111111111111,set #1
1970-01-01 00:00:37.437502441,3.7173941135406494,0.37722742557525635,1.0347766876220703,-230.22185471999998,-523.1632621800001,-532.4691567,-920.23371765,1341.28980921,1685.90050473,-282.53611815,-252.52515795000002,71.38888888888889,set #1
1970-01-01 00:00:37.447124061,3.7135884761810303,0.3763381242752075,1.0289115905761719,147.52111803,-289.33170435,-96.415137,-305.17508814,2112.82620042,2056.21929201,30.906679439999998,-42.77100594,71.66666666666667,set #1
1970-01-01 00:00:37.457125959,3.7097389698028564,0.37546223402023315,1.0230964422225952,189.17344602,-316.40171238,-69.25641684,-294.24428241,1330.66474593,1878.28289454,18.40006857,-67.14683117999999,71.94444444444444,set #1
1970-01-01 00:00:37.467348155,3.7058637142181396,0.3745225965976715,1.0172361135482788,-399.38252055,-732.5867913,-648.3087975,-866.8023390000001,1198.33003875,1827.22692165,-314.19889215,-197.6527176,72.22222222222223,set #1
1970-01-01 00:00:37.477316675,3.7019596099853516,0.3735334277153015,1.0114407539367676,-47.21371199999999,-306.459699,-201.75096825000003,-352.5052635,1339.624728,1680.51665925,219.077547,-34.09150875,72.5,set #1
1970-01-01 00:00:37.487239656,3.697916269302368,0.37260669469833374,1.0056926012039185,-194.82793824,-361.47696936,-453.50355336,-646.9697520000001,817.6907512800001,1649.22995016,-79.6239132,-91.15982616000001,72.77777777777779,set #1
1970-01-01 00:00:37.497397241,3.693751335144043,0.37165871262550354,0.9998698830604553,-970.18846314,-766.40325177,-786.77361516,-869.25861516,643.10407122,873.9690285300001,-37.6014015,-125.41914723,73.05555555555556,set #1
1970-01-01 00:00:37.507643756,3.689554214477539,0.3707306683063507,0.9940550923347473,-288.37572036,175.08905856,-250.74356892,-360.46532964,2804.4007602,-146.20023443999997,94.46948316,343.91732232000004,73.33333333333334,set #1
1970-01-01 00:00:37.517555055,3.6852352619171143,0.36975106596946716,0.9883801937103271,-544.01018295,188.24486850000002,-571.5963396,-758.5441578,589.5179082,-422.60267205,21.491962049999998,275.91484635,73.61111111111111,set #1
1970-01-01 00:00:37.527703104,3.680936336517334,0.3687695562839508,0.9827353358268738,-1016.7463238400001,-933.3400128000001,-643.23894336,-493.2202704,-5528.19623616,-130.05265728,-77.32394592,122.71552799999999,73.88888888888889,set #1
1970-01-01 00:00:37.537385282,3.6765832901000977,0.3678682744503021,0.977127730846405,-1085.96375394,903.8027271000001,-419.67723252,-525.36421314,25.31772594000006,-28.112301360000004,-46.9477944,176.86070610000002,74.16666666666667,set #1
1970-01-01 00:00:37.547331390,3.6722452640533447,0.3670124113559723,0.9715964794158936,631.0518903,1050.6717858,-341.0114409,91.7341269,1292.5034421,848.9114088,29.6903802,129.4871799,74.44444444444444,set #1
1970-01-01 00:00:37.557454643,3.667969226837158,0.3661736845970154,0.9662533402442932,698.78851107,174.61363763999998,-456.95659386,403.35148893,1803.7654833899999,984.62491998,509.93504328,-39.16464318,74.72222222222223,set #1
1970-01-01 00:00:37.567328987,3.6635947227478027,0.3653348684310913,0.9608180522918701,622.76427876,196.93395618,-767.45271759,441.34602251999996,671.38830798,1441.0386701099999,1075.425,-34.18993305,75.0,set #1
1970-01-01 00:00:37.577445564,3.6591908931732178,0.3644980788230896,0.955339252948761,-75.5239446,-179.34891468,-560.6839446,-263.33793408,1467.21531684,357.22514724,478.08345312,-199.38987276,75.27777777777779,set #1
1970-01-01 00:00:37.587390480,3.654825448989868,0.3637865483760834,0.950028121471405,-201.39834,-443.25113039999997,-555.2376024,-1.9243535999999963,595.2433656,2319.5965104,173.9825568,-382.7330832,75.55555555555556,set #1
1970-01-01 00:00:37.597417173,3.6505661010742188,0.363106369972229,0.9448833465576172,118.33032783,308.24342796,-231.71955339000002,191.88292968000002,1524.3773649,687.70426179,-12.90230253,-56.377199190000006,75.83333333333334,set #1
1970-01-01 00:00:37.606996355,3.646345615386963,0.3624979257583618,0.939736545085907,-0.18387524999999982,-189.56583555,-68.75631945,-203.0990208,994.28182425,1109.02946505,-154.73141775,-143.71357845,76.11111111111111,set #1
1970-01-01 00:00:37.617678937,3.642249822616577,0.3622090518474579,0.9346188902854919,-183.88300398,-328.37163177,-376.91388735,-502.96526475,207.2258877,1022.1668160600001,-377.83983042,-433.75538934,76.38888888888889,set #1
1970-01-01 00:00:37.627471742,3.6382017135620117,0.3619278371334076,0.9296285510063171,244.68324660000002,65.31812274000002,333.17590644,-176.79408318,1061.2622163,961.52723706,-47.19039234,-41.12853654,76.66666666666667,set #1
1970-01-01 00:00:37.637269315,3.6341278553009033,0.36151522397994995,0.9248085021972656,181.5910512,-6.30154395,133.72480290000001,-197.1910512,340.0473063,911.65385025,5.055788400000001,-9.02983575,76.94444444444444,set #1
1970-01-01 00:00:37.647392568,3.6300015449523926,0.3607783913612366,0.9202377200126648,-210.30011184,-535.7664468,-242.74127904,-661.3256395200001,1353.5225652000001,886.6341525600001,-316.4336292,-391.87438056,77.22222222222223,set #1
1970-01-01 00:00:37.657082376,3.625842571258545,0.36015504598617554,0.9157946705818176,14.94845352,-174.63487392,-220.9604592,-737.86584768,179.29777008,608.75339304,-212.26987391999998,-171.93099144,77.5,set #1
1970-01-01 00:00:37.667284784,3.6216824054718018,0.35948696732521057,0.9114580154418945,-78.38733552,-185.03536272,46.52707488,-319.08268704,323.39287967999996,620.8163832,-239.42270976,-195.33412704,77.77777777777779,set #1
1970-01-01 00:00:37.677547512,3.6174910068511963,0.3587728440761566,0.9072813391685486,-40.461096000000005,-174.74642016,-67.17966216,-427.73641560000004,1464.95310936,502.56708216,-287.01083112000003,-216.70672608,78.05555555555556,set #1
1970-01-01 00:00:37.687437353,3.6132469177246094,0.35815659165382385,0.9032516479492188,38.23388361,-57.35993601,91.60663902,-258.02790233999997,1355.52609387,439.68026310000005,-142.13319510000002,-117.12412062000001,78.33333333333334,set #1
1970-01-01 00:00:37.697431621,3.608945369720459,0.3575263023376465,0.8992244601249695,288.83337678,323.49823272000003,-99.38495541,-365.61329103,1653.95540817,361.11177414,-367.5665409,-89.35839393,78.61111111111111,set #1
1970-01-01 00:00:37.707928953,3.6046032905578613,0.3570673167705536,0.8953633308410645,212.97874962,76.88187429000001,-22.85104185,-338.57541666000003,756.7402077300001,270.03729207,-346.73979171,-169.68812523,78.88888888888889,set #1
1970-01-01 00:00:37.717129287,3.6002461910247803,0.3565901219844818,0.8916454911231995,-120.57274124999999,44.59841841,-126.73301667000001,-335.30733951,517.99910799,270.56021226,-162.62639210999998,22.59527283,79.16666666666667,set #1
1970-01-01 00:00:37.727361497,3.5958588123321533,0.35618850588798523,0.8880234360694885,164.64695403000002,363.59345022,25.151240010000002,81.49059321,106.33443405,416.44657704,55.44214299,123.26648256,79.44444444444444,set #1
1970-01-01 00:00:37.737399158,3.5914196968078613,0.35575175285339355,0.8843831419944763,-327.1738782,-247.6122363,-71.46828234,-104.15611596000001,278.98119756,461.70753642,2.0450757599999996,-108.22656468,79.72222222222223,set #1
1970-01-01 00:00:37.747477588,3.5870206356048584,0.3552803695201874,0.8808225393295288,-42.64964808,-23.37087012,34.52727407999999,46.61123844,1081.9290799199998,-41.00472636000001,136.97615568,-5.219842679999999,80.0,set #1
1970-01-01 00:00:37.757214126,3.582637310028076,0.35462746024131775,0.8773236870765686,-28.59282738,-187.54929726,112.18532364,97.3666317,192.75143394,-24.94204674,200.63748276,100.86129456,80.27777777777779,set #1
1970-01-01 00:00:37.767261085,3.5782470703125,0.35389283299446106,0.8736516237258911,-212.6151066,-385.19407094999997,-79.6273374,-159.35446604999998,999.02335065,1153.48064325,41.862443999999996,-33.816781049999996,80.55555555555556,set #1
1970-01-01 00:00:37.777303514,3.5738067626953125,0.35291019082069397,0.8701898455619812,-276.94671186,-471.82337046,-57.77293704,-130.45997094,-627.74746008,70.11033900000001,125.28969491999999,-66.6457506,80.83333333333334,set #1
1970-01-01 00:00:37.787291822,3.569448947906494,0.3518797755241394,0.8667914271354675,-119.57125596,-258.25614672,4.8351552600000005,-86.50603416,-1493.6957302800001,627.3331279800001,222.71108184,-59.129887440000005,81.11111111111111,set #1
1970-01-01 00:00:37.797701892,3.565101146697998,0.35074561834335327,0.863478422164917,-58.035043560000005,-391.37679048,9.1323336,-172.13892851999998,-2610.86039604,-153.33208956000001,74.0119926,-88.84315284,81.38888888888889,set #1
1970-01-01 00:00:37.807128248,3.560722589492798,0.34954503178596497,0.8601884245872498,154.77637032,-112.58513448,-132.09592032,-253.76709072000003,-1659.2352348,-102.63456528,-82.7989968,-38.344063680000005,81.66666666666667,set #1
1970-01-01 00:00:37.817787466,3.5563037395477295,0.3483867347240448,0.8568751811981201,160.86967884,-160.19330417999998,-194.7284937,-253.40224338000002,-1582.35964926,-165.82651488000002,-211.0091373,-178.02119244,81.94444444444444,set #1
1970-01-01 00:00:37.827524480,3.551889181137085,0.34730568528175354,0.8536221385002136,121.485,-84.1468992,-34.172486400000004,-155.7066576,-1911.0687648,9.3313584,-161.3003184,-40.250184,82.22222222222223,set #1
1970-01-01 00:00:37.837831077,3.5474600791931152,0.3462156057357788,0.8504565358161926,149.65716129,114.83640285,-1.79195874,-156.65604201,-1553.2387111799999,10.98335784,-332.33532033,21.80832108,82.5,set #1
1970-01-01 00:00:37.848516521,3.543022871017456,0.3451758921146393,0.8473349809646606,296.97988710000004,121.50092097,-78.69528224999999,-244.16785107,-1616.7426709200001,-324.74417079,-664.76788638,-242.42403314999999,82.77777777777779,set #1
1970-01-01 00:00:37.857232627,3.538569211959839,0.3442414402961731,0.8442367911338806,366.06920376,200.84471316,278.33342238,-28.89998514,-2077.55443116,-1010.21120421,-425.58947574,-54.00789069,83.05555555555556,set #1
1970-01-01 00:00:37.867359457,3.5340778827667236,0.3434295058250427,0.8412347435951233,187.35384681,-56.88843576000001,39.65894205,-174.89809388999998,-2975.5862830200003,-5508.907366560001,-657.1573409700001,-68.55444609,83.33333333333334,set #1
1970-01-01 00:00:37.877625284,3.5295658111572266,0.3426378071308136,0.8383536338806152,266.83556952,-114.0118356,-157.34139252,-319.18253172,-2657.5647446400003,-6388.9800000000005,-603.3362025600001,-108.17658228,83.61111111111111,set #1
1970-01-01 00:00:37.887272653,3.5250399112701416,0.34178435802459717,0.8355468511581421,482.26095372000003,23.514937680000003,-139.38424461,-273.67270944,-2666.21727216,-2114.28124362,-534.27595806,-234.71647719,83.88888888888889,set #1
1970-01-01 00:00:37.897442398,3.520582914352417,0.34098196029663086,0.8328104615211487,207.83133774,-218.76401507999998,-48.30957612,-195.13021007999998,-4087.8478641,-986.87894526,-408.94542078,-288.58471824000003,84.16666666666667,set #1
1970-01-01 00:00:37.907522020,3.5161795616149902,0.3402426540851593,0.8301728367805481,118.1866062,-68.32683000000002,-5.1877098,-227.0583198,1408.6385508,-1432.4559132,100.4133234,145.69534199999998,84.44444444444444,set #1
1970-01-01 00:00:37.917472181,3.511899471282959,0.33946624398231506,0.8277109265327454,66.46187301,9.93415059,-19.19737404,-186.37573422,-1706.23047387,445.87936224,282.90275988,48.913898669999995,84.72222222222223,set #1
1970-01-01 00:00:37.927331981,3.5076615810394287,0.3387042284011841,0.8253000378608704,-82.2602079,-252.65698107000003,-70.16835540000001,-157.56,770.76217803,1016.1558053399999,217.38320604,146.83210581,85.0,set #1
1970-01-01 00:00:37.937203464,3.503519296646118,0.3380165696144104,0.8229702711105347,-418.42108152000003,-561.25557696,-78.68461536000001,-331.77353352,-153.18954456,2341.82173056,89.57336544,47.72259648,85.27777777777779,set #1
1970-01-01 00:00:37.947469768,3.499478816986084,0.33751004934310913,0.8207626342773438,-423.60713304,-440.27737104,32.94960864,-263.33253336,362.99996616,2866.22520912,87.72911472000001,-3.3948376799999984,85.55555555555556,set #1
1970-01-01 00:00:37.957308826,3.4955360889434814,0.3370962142944336,0.8187416791915894,-347.46700872,-383.002893,110.83455786,-202.27806221999998,-287.06344992,2489.3354148,115.29085152,-14.068706339999999,85.83333333333334,set #1
1970-01-01 00:00:37.967324552,3.491677761077881,0.3368416428565979,0.8168966770172119,-179.8822584,-192.9577416,80.91535296,-177.6823932,382.04302032,2806.3313147999997,-180.77527416,-49.793424720000004,86.11111111111111,set #1
1970-01-01 00:00:37.977321681,3.4879918098449707,0.3367537558078766,0.8151748776435852,-88.13158107,-57.07741182,10.4782236,-230.80494255,420.46287543,2374.49309721,-384.88418475000003,-88.99338045,86.38888888888889,set #1
1970-01-01 00:00:37.987355766,3.4844257831573486,0.3367340564727783,0.8135538101196289,-55.39516632,29.036074859999996,93.24739163999999,-174.10136718,893.4220791600001,1971.6757912799999,-490.8898488,-64.06524696,86.66666666666667,set #1
1970-01-01 00:00:37.997225103,3.4809491634368896,0.33669495582580566,0.812085747718811,-196.02796785,57.56832705,72.50805861,-85.28578071000001,1438.6522117499999,1524.42910776,-337.95394893,-104.16595839,86.94444444444444,set #1
1970-01-01 00:00:38.007353363,3.477551221847534,0.33641141653060913,0.8106764554977417,-272.79381324,37.98545946,1.1717355000000005,-82.5226116,692.43680337,1182.59437686,-14.956943820000001,-89.2181901,87.22222222222223,set #1
1970-01-01 00:00:38.017587718,3.4741997718811035,0.33639493584632874,0.8093611001968384,-315.85552986000005,144.734499,-0.017119439999999986,-76.50156072,309.81052986000003,1067.73111744,86.17976874,146.69475912000001,87.5,set #1
1970-01-01 00:00:38.027371463,3.4709253311157227,0.33625853061676025,0.8080534934997559,-175.41394455,227.02144374,-70.45522497,-110.32444839,-22.25301078,722.3894145,-3.6309198900000013,-59.2505316,87.77777777777779,set #1
1970-01-01 00:00:38.037075099,3.467613458633423,0.3360899090766907,0.806835949420929,-61.78416699,356.52782529,-109.75416699,-76.58721525,81.32884461,643.9454884200001,223.97561004,86.4805695,88.05555555555556,set #1
1970-01-01 00:00:38.047393856,3.464325189590454,0.3358425796031952,0.8056283593177795,185.37427584,629.25525312,-28.35993888,-32.21308896,-412.82912736,290.7177312,331.34317632000005,131.07379584,88.33333333333334,set #1
1970-01-01 00:00:38.057505187,3.461108922958374,0.3356509506702423,0.8045096397399902,95.69644968,628.50645351,-167.76755541,-169.65606879,-216.06681525,5.30625732,149.74381656,47.43152739000001,88.61111111111111,set #1
1970-01-01 00:00:38.067782459,3.457883834838867,0.33558177947998047,0.8034719824790955,4.27356891,383.82086574,-103.64007069,-129.54840990000002,-183.99918732,-605.05162536,86.00120139,1.56,88.88888888888889,set #1
1970-01-01 00:00:38.077936944,3.4547197818756104,0.33539101481437683,0.8025288581848145,-78.74265360000001,135.16193808,-148.89030624,-142.02306144,-330.48244944,-407.80632672,87.27755088,53.683163040000004,89.16666666666667,set #1
1970-01-01 00:00:38.087356863,3.451596975326538,0.3352300822734833,0.8016623854637146,156.82818333,312.80829372000005,36.85808139,55.56277584,-193.52490651,-91.01070458999999,184.0188285,105.90718164,89.44444444444444,set #1
1970-01-01 00:00:38.097450075,3.4484965801239014,0.3352889120578766,0.8007065057754517,-120.10550175,12.591267000000002,-106.865265,-124.72855200000001,-330.0661845,-24.35494425,67.03754850000001,14.738022,89.72222222222223,set #1
1970-01-01 00:00:38.107295570,3.44539475440979,0.33541300892829895,0.7998308539390564,-128.0170047,101.06579339999999,-40.3689624,-126.1264836,-232.6137606,12.1428216,36.6965352,-35.0548263,90.0,set #1
1970-01-01 00:00:38.117410717,3.442312002182007,0.3355109989643097,0.7990384697914124,-31.025898150000003,254.01535926,182.91002964,34.96071852,-459.53152596,50.99248518,139.84982037,82.46407221,90.27777777777779,set #1
1970-01-01 00:00:38.127253351,3.43920636177063,0.33555006980895996,0.7982603311538696,61.28960019,374.46482775,207.99755847,49.92261378,-691.70891751,58.41842604,131.12312421000001,113.45340708,90.55555555555556,set #1
1970-01-01 00:00:38.137460765,3.4360952377319336,0.3354022204875946,0.797597348690033,-262.43193794999996,-0.13809900000000042,-138.87021915,-198.9682812,-721.9041492,34.46986335,-52.4357769,-19.6031901,90.83333333333334,set #1
1970-01-01 00:00:38.147498188,3.4333200454711914,0.3352789878845215,0.7969228029251099,-125.38217328,182.40132144,-49.889612760000006,-88.11455952,-742.95777348,-31.78570668,4.330280760000001,-54.96597288,91.11111111111111,set #1
1970-01-01 00:00:38.157501993,3.4306583404541016,0.3351985216140747,0.796627938747406,-164.07739062000002,138.65665905,-114.6833181,-77.67606795,-645.32961792,-25.149559110000002,3.64748202,-26.9566362,91.3888888888889,set #1
1970-01-01 00:00:38.167288122,3.4281058311462402,0.33489686250686646,0.7961968779563904,-83.89288128,148.53365982,-113.57576256,-43.29313014,-730.591758,-68.94736758,51.16230366,-64.74000000000001,91.66666666666667,set #1
1970-01-01 00:00:38.177343664,3.4256210327148438,0.3347133696079254,0.7954763174057007,-157.12379904,87.33528960000001,-163.83787056,-79.14528960000001,-822.40768272,-89.36936112000001,23.01160992,-104.38328784000001,91.94444444444444,set #1
1970-01-01 00:00:38.187409219,3.4232800006866455,0.33458948135375977,0.7948334813117981,-196.30188396,68.94984915,-109.06497576,-28.245640019999996,-727.48518102,-118.27896132000001,2.5306039199999972,-143.6126328,92.22222222222223,set #1
1970-01-01 00:00:38.197384653,3.4210004806518555,0.33446237444877625,0.7942919135093689,-229.19133743999998,48.64268213999999,-143.00933985,-25.94986797,-690.43667238,-123.54041076,43.109867969999996,-63.32963325,92.5,set #1
1970-01-01 00:00:38.207337913,3.4186627864837646,0.3342982232570648,0.793769896030426,-214.62751244999998,56.98497012,-207.27109455,-29.664686609999997,-497.57468163,-165.53682093,-17.340074700000002,-97.98542793,92.77777777777779,set #1
1970-01-01 00:00:38.217604694,3.4164254665374756,0.3341839611530304,0.7932541370391846,-125.77715514,145.32776466,-189.32534946,-8.461818300000001,-456.48019248,-160.3357665,-19.28463108,-98.3285472,93.05555555555556,set #1
1970-01-01 00:00:38.227210578,3.414201498031616,0.33424150943756104,0.7927752733230591,-188.23496640000002,67.33764726,-251.0436786,-85.13763492,-414.35360694,-232.95299664,-139.88700336,-139.00425084,93.33333333333334,set #1
1970-01-01 00:00:38.237497386,3.4119229316711426,0.33434516191482544,0.792219340801239,-19.6899027,239.20994915999998,-103.89626052,40.11874386,-707.78401824,-312.3033459,-124.37329944,-200.92980101999999,93.61111111111111,set #1
1970-01-01 00:00:38.247891483,3.4096450805664062,0.3343803882598877,0.791736900806427,-73.42015863,58.613052030000006,-56.14288212,74.56874295,-854.58724338,-443.18306331,-499.3574859,-985.0446489,93.8888888888889,set #1
1970-01-01 00:00:38.257211980,3.4074161052703857,0.33451414108276367,0.7912343144416809,-299.4086472,-77.166141,-221.6207136,-103.29082140000001,-111.69802800000001,-502.8142158,-301.2121866,-340.85481300000004,94.16666666666667,set #1
1970-01-01 00:00:38.267236528,3.4051802158355713,0.3347204625606537,0.7909117937088013,-319.35273552,3.090871680000001,-124.02112944,-2.5092599999999994,-41.53274112,-663.63986832,-150.78521328000002,-327.07804896,94.44444444444444,set #1
1970-01-01 00:00:38.277274188,3.4032537937164307,0.334704726934433,0.7908564209938049,-381.4140018,-68.11173408,-150.48353424,-38.377467960000004,181.38692832,-683.7831998400001,-61.8276672,-6.070267320000001,94.72222222222223,set #1
1970-01-01 00:00:38.287552652,3.4013543128967285,0.3347312808036804,0.7903870940208435,-381.21586776000004,-115.99442556,-179.53536432,-84.59029332,-60.70690548,-805.74,-186.88194564,-151.16561460000003,95.0,set #1
1970-01-01 00:00:38.297442255,3.399564027786255,0.33474549651145935,0.7900235652923584,-95.96560155,32.83171125,-173.13908235,-66.90752055,-84.88882155,-793.2743013,-189.6597534,-27.6883971,95.27777777777779,set #1
1970-01-01 00:00:38.307368574,3.3979897499084473,0.33477240800857544,0.7896706461906433,-152.77635438,63.4362807,-106.83428418,-10.899775380000005,-284.35123158,-814.9350736800001,-160.97977896,42.02864562,95.55555555555556,set #1
1970-01-01 00:00:38.317569789,3.396493911743164,0.33478203415870667,0.7893751263618469,-263.22798138,-67.33499604000001,-219.10802199,-128.80028031,-235.22782686,-838.7721771,-235.44217709999998,-92.92439481,95.83333333333334,set #1
1970-01-01 00:00:38.327627954,3.395155191421509,0.33462420105934143,0.7890626192092896,-184.49686086,8.335097939999999,-175.81705674,-48.183432960000005,-82.58098446,-805.35460824,-111.8294073,31.127845320000002,96.11111111111111,set #1
1970-01-01 00:00:38.337414560,3.394029378890991,0.3346133232116699,0.7888029217720032,-103.5116784,12.6811152,-162.0684624,-37.7706576,-184.7377584,-795.4519248,-130.2747888,-17.2512912,96.3888888888889,set #1
1970-01-01 00:00:38.347261962,3.3930163383483887,0.3346748352050781,0.7885438799858093,-202.9590849,-83.108259,-193.04020086,-93.17919624000001,-192.01433004,-746.3583036,-162.66638388,-77.10756690000001,96.66666666666667,set #1
1970-01-01 00:00:38.357398567,3.3921029567718506,0.3346593976020813,0.7883562445640564,-192.77867661,-96.62367818999999,-160.0838226,-87.41353062,-320.62558554000003,-668.2566169500001,-86.4241209,-59.99441604,96.94444444444444,set #1
1970-01-01 00:00:38.367450056,3.3912763595581055,0.33465632796287537,0.7882102131843567,-165.96425976,-124.4119656,-198.92035176000002,-103.41061848,-103.87569192000001,-612.51404136,-44.3637012,8.12959992,97.22222222222223,set #1
1970-01-01 00:00:38.377392826,3.390470266342163,0.3346557319164276,0.7880204319953918,-66.53628774,-47.00847918,-151.70931984,-20.305428,-565.2308025,-631.0471284,22.69028658,66.71899884,97.5,set #1
1970-01-01 00:00:38.387134847,3.3897390365600586,0.334683358669281,0.7878310680389404,-88.76476869,-28.370246969999997,-124.18265925,-41.36386800000001,-388.44361842,-607.62650637,22.04204574,85.87318818000001,97.77777777777779,set #1
1970-01-01 00:00:38.397222814,3.3891310691833496,0.33474698662757874,0.7877588272094727,-58.04266416,-24.13135842,-114.50992098,-26.83184478,-508.09348824,-598.0034619,28.44836124,87.54210348000001,98.05555555555556,set #1
1970-01-01 00:00:38.407477674,3.3885915279388428,0.33467233180999756,0.7876691818237305,-104.07431424,-55.33484268,-189.6497499,-82.26569988,-432.12526422,-682.47387858,-92.30101452,-19.00369302,98.33333333333334,set #1
1970-01-01 00:00:38.417773303,3.3881077766418457,0.33450576663017273,0.7875072360038757,78.53155011,14.44431573,-98.32604028,-4.3409800200000035,-725.27504361,-705.61817079,-39.3996876,36.18918966,98.61111111111111,set #1
1970-01-01 00:00:38.427288589,3.3877220153808594,0.33436378836631775,0.7873437404632568,-29.03662593,-47.02768434,-113.80678335,-31.793034389999995,-840.26857707,-747.02930406,-43.4404971,34.97036868,98.8888888888889,set #1
1970-01-01 00:00:38.437403497,3.3874640464782715,0.334207147359848,0.7872772812843323,-72.70522974000001,-46.226406329999996,-114.66484887,-48.57073181999999,-343.29061923,-706.25918298,-57.68616594,13.94702556,99.16666666666667,set #1
1970-01-01 00:00:38.448522624,3.387265205383301,0.3340071737766266,0.787253737449646,14.1211824,115.10471232,-78.84087744000001,25.4497152,-462.49237632,-718.14265536,127.8573504,22.69058688,99.44444444444444,set #1
1970-01-01 00:00:38.457304296,3.3870887756347656,0.3338168263435364,0.7872117757797241,-192.51619295999998,-131.14983336,-180.42526320000002,-89.13221928,-52.4345172,-703.3403332800001,-63.47599128,-14.76927192,99.72222222222223,set #1
1970-01-01 00:00:38.467219171,3.386963367462158,0.33366304636001587,0.7871620655059814,-14.02706643,18.687265739999997,-143.61638811,-77.78903613,-407.5601049,-714.39189627,-95.76136713000001,-80.81325291,100.0,set #1
1970-01-01 00:00:38.467219171,3.386963367462158,0.33366304636001587,0.7871620655059814,-14.02706643,18.687265739999997,-143.61638811,-77.78903613,-407.5601049,-714.39189627,-95.76136713000001,-80.81325291,0.0,set #2
1970-01-01 00:00:38.477613029,3.386955499649048,0.3334727883338928,0.7872010469436646,40.85814681,83.09540655,-68.68929249,-7.167228120000001,-510.98317335,-711.93978882,14.335105590000001,86.63450367,0.273972602739726,set #2
1970-01-01 00:00:38.487708148,3.3870348930358887,0.33323192596435547,0.7872933149337769,37.46570568,90.55250412000001,-50.82076116,27.94595232,-383.14267056,-715.73638188,1.9121512799999998,20.8606632,0.547945205479452,set #2
1970-01-01 00:00:38.497340974,3.387211561203003,0.3330008387565613,0.7873669266700745,-5.109128699999999,50.90168304,-116.84357177999999,-54.40725654,-628.62753408,-719.57514798,52.122535920000004,30.060717179999997,0.821917808219178,set #2
1970-01-01 00:00:38.507178602,3.387500286102295,0.33281341195106506,0.78743577003479,-25.7800569,28.806479520000003,-157.2935091,-104.26697268000001,-614.7058156200001,-742.4063922600001,68.97647952,-64.80748482000001,1.095890410958904,set #2
1970-01-01 00:00:38.517600116,3.387909412384033,0.33257755637168884,0.7875645756721497,-79.1731668,64.07215932,-112.55630724,-50.623492920000004,-605.78781432,-718.65490008,117.61816404,-9.28688592,1.36986301369863,set #2
1970-01-01 00:00:38.527122554,3.3884286880493164,0.3322717249393463,0.7877415418624878,-171.13730243999998,-115.62355271999999,-281.83042758,-215.89171032,-669.97802664,-741.81453996,-73.89154578,-134.7640788,1.643835616438356,set #2
1970-01-01 00:00:38.537290391,3.389019727706909,0.3319302797317505,0.7878574132919312,-39.77154831,14.35156125,-132.22625598000002,-42.57567132,-606.38864442,-696.09975747,12.199763939999999,-9.23315289,1.917808219178082,set #2
1970-01-01 00:00:38.547565755,3.389718532562256,0.3316246271133423,0.7879852056503296,-67.1018439,63.9996006,-133.46964345,-45.5091546,-472.53453195000003,-743.5360218000001,-46.7517765,-72.5430654,2.191780821917808,set #2
1970-01-01 00:00:38.557436046,3.3905551433563232,0.3312302529811859,0.7881795763969421,-65.22523176,84.97918884,-95.18492490000001,-13.346141639999999,-456.71495922,-688.467897,-23.046257519999997,-15.321083700000003,2.4657534246575343,set #2
1970-01-01 00:00:38.567043361,3.391474485397339,0.33083251118659973,0.7884213328361511,-34.32267033,167.01774258,-107.73725741999999,-29.91534663,-550.33013256,-655.10751657,-71.23155819,-81.35044008,2.73972602739726,set #2
1970-01-01 00:00:38.577428874,3.392563581466675,0.33040812611579895,0.7887320518493652,-141.44039052,68.88552216000001,-142.16408622,-68.20773804000001,-800.92908402,-634.9241301,-104.27860794,-144.60926064,3.013698630136986,set #2
1970-01-01 00:00:38.587331829,3.3937876224517822,0.3299998342990875,0.7889949083328247,-86.01084063,114.47380035,-72.31109457000001,2.08691769,-616.57499124,-575.04619965,-29.39701401,-65.6441331,3.287671232876712,set #2
1970-01-01 00:00:38.597147760,3.395106554031372,0.32974833250045776,0.7893708944320679,-90.16862400000001,139.39005600000002,-142.0607448,-73.6908432,-755.0888904000001,-556.6807584000001,-37.629228,-96.426096,3.5616438356164384,set #2
1970-01-01 00:00:38.607333717,3.3964345455169678,0.32950109243392944,0.7898114323616028,-98.33317923,142.88361633,-172.43407701,-89.75362812,-388.48195698,-490.42769334,-64.20997479,-119.72775555,3.835616438356164,set #2
1970-01-01 00:00:38.617458400,3.397831678390503,0.32932162284851074,0.7902581691741943,-248.73888,-26.324375999999997,-316.43476799999996,-225.17507999999998,-301.549872,-498.451512,-221.272272,-302.457168,4.10958904109589,set #2
1970-01-01 00:00:38.627036628,3.3992810249328613,0.3294174373149872,0.790793240070343,-256.20710076,83.0178492,-246.32422932,-178.92701736,-520.7498088,-444.94782696,-130.83706740000002,-100.39847532,4.383561643835616,set #2
1970-01-01 00:00:38.637509641,3.400688886642456,0.3297473192214966,0.7914495468139648,0.78,292.72456044,-7.41375999,67.04291958,-476.12828171999996,-407.35927947000005,-10.03899975,-39.90407967,4.657534246575342,set #2
1970-01-01 00:00:38.647763309,3.402200698852539,0.3300197422504425,0.7921937704086304,-100.63821885,206.20171104,-43.541383859999996,70.93735623,-561.11342001,-396.02871672,23.75325849,-57.560621819999994,4.931506849315069,set #2
1970-01-01 00:00:38.657130775,3.403670310974121,0.3303941786289215,0.7929874658584595,-258.806847,152.03417775,-210.76172325,-93.08082225,-533.4386264999999,-381.64798425,-30.102072,-109.01996625,5.205479452054794,set #2
1970-01-01 00:00:38.667433080,3.405323028564453,0.33094853162765503,0.7938032746315002,-54.5034672,307.4367036,-128.6000508,-35.03253,-632.0629224,-298.935,-60.806491199999996,-134.0481948,5.47945205479452,set #2
1970-01-01 00:00:38.677471456,3.406991720199585,0.33153796195983887,0.794723629951477,-125.8037664,242.08606656,-232.72480607999998,-134.9695152,-726.1800000000001,-258.75962112,-163.86791616,-198.27159456,5.7534246575342465,set #2
1970-01-01 00:00:38.687459764,3.4087350368499756,0.33203086256980896,0.7956874370574951,-148.16024184000003,212.01814919999998,-298.69145280000004,-248.03852892,-618.99486168,-192.09508656,-136.81865028,-158.09394432000002,6.027397260273972,set #2
1970-01-01 00:00:38.697702703,3.4104859828948975,0.3324902355670929,0.7967139482498169,48.31257093,404.19810834000003,-59.8228332,39.9855417,-719.26542558,-207.66972486,105.52137141,-12.132149640000002,6.301369863013698,set #2
1970-01-01 00:00:38.707717237,3.4124274253845215,0.33315491676330566,0.7977126836776733,-167.3433645,107.96969625,-302.94893460000003,-253.19837945999998,-414.72194673,-221.715,-38.44999626,-178.00277196,6.575342465753424,set #2
1970-01-01 00:00:38.717240390,3.4144845008850098,0.33371812105178833,0.7987372279167175,42.0037605,426.7235505,-44.902579800000005,-12.4239453,-389.5836009,-232.13625629999999,76.709958,11.0550336,6.8493150684931505,set #2
1970-01-01 00:00:38.727528867,3.416630744934082,0.3341396749019623,0.7997748851776123,-11.9030691,304.43960976,-250.96350201,-243.30858942,-757.05309147,-355.89793902,-78.55568292,-71.76403455,7.123287671232877,set #2
1970-01-01 00:00:38.737184104,3.4188766479492188,0.33451658487319946,0.8007882237434387,-15.931163040000001,190.72961232,-82.0059552,32.329530479999995,-1431.65742408,-436.60421064,53.63007,-88.18475016000001,7.397260273972602,set #2
1970-01-01 00:00:38.747456369,3.421250581741333,0.33476895093917847,0.8017123937606812,120.87281817,372.71991471,-114.36113598,-54.59960259,-930.84611178,-369.46475865,68.19152613,36.14620191,7.671232876712328,set #2
1970-01-01 00:00:38.757457075,3.423729658126831,0.3349156379699707,0.8026381731033325,-171.56122425,11.782182749999997,-159.66218775000002,-108.3505215,-480.522744,-233.87381549999998,-11.334150750000006,-56.461002,7.945205479452055,set #2
1970-01-01 00:00:38.767601070,3.426382303237915,0.33494922518730164,0.8035483956336975,-45.6698697,146.0895657,54.3468042,50.255751000000004,-589.937595,-220.7877633,117.2573688,78.9274629,8.21917808219178,set #2
1970-01-01 00:00:38.777480897,3.42913556098938,0.3349097967147827,0.8045265674591064,-82.37421972000001,140.69087994,244.954983,17.25069762,-1003.28439237,-204.95374575,239.49595527,183.48009966,8.493150684931507,set #2
1970-01-01 00:00:38.787164030,3.4320285320281982,0.3348834812641144,0.8055101037025452,-82.4109624,112.5273396,38.1870372,-64.4045571,-774.15,-171.29783970000003,164.64867900000002,169.6547073,8.767123287671232,set #2
1970-01-01 00:00:38.797003564,3.4349524974823,0.3349553346633911,0.8065096139907837,-236.77407312,-119.50777956,-241.43403492,-179.09797308,-659.94393816,-148.36998072,63.12162168,19.79409276,9.041095890410958,set #2
1970-01-01 00:00:38.807353076,3.4380059242248535,0.3349340558052063,0.8075474500656128,214.61601252,371.88861684,-58.17393348,-109.28166912,-448.23339756,-12.44758632,247.29867084,174.6404946,9.315068493150685,set #2
1970-01-01 00:00:38.817401466,3.4411001205444336,0.33502933382987976,0.8086336255073547,-229.04847185999998,-99.52718490000001,-300.4778478,-332.54740428,-301.4836851,-122.08269996,-43.96868034,-177.88826952,9.58904109589041,set #2
1970-01-01 00:00:38.827166376,3.4443483352661133,0.3351384699344635,0.8097800016403198,226.34405664,418.8114372,325.33644935999996,190.06555464000002,-98.48826312,-66.94512552,113.43395544,126.37020240000001,9.863013698630137,set #2
1970-01-01 00:00:38.837310132,3.4476640224456787,0.33554401993751526,0.811053991317749,-268.19166036,-57.37432896,-96.43343424,-222.80804364,-48.13976076,-198.87542844,-72.7075206,-41.8751892,10.136986301369863,set #2
1970-01-01 00:00:38.847650585,3.451005458831787,0.3359464108943939,0.8124081492424011,-173.13549435000002,181.97091315,-103.0672032,-166.95022305,-534.35531955,-269.78592225,-145.45005735,46.451630550000004,10.410958904109588,set #2
1970-01-01 00:00:38.857333240,3.454460620880127,0.3364454507827759,0.8139155507087708,-272.8635936,-124.5277332,-317.459454,-250.2445764,-33.3365916,-231.3977796,-104.3208504,41.803881600000004,10.684931506849315,set #2
1970-01-01 00:00:38.868124780,3.4581727981567383,0.33710649609565735,0.8156031370162964,99.2700306,300.41064300000005,-244.5749592,-130.84232459999998,-355.2838224,-267.2010666,127.024482,231.7874598,10.95890410958904,set #2
1970-01-01 00:00:38.877317962,3.4620578289031982,0.33803409337997437,0.8175002336502075,-41.45646102,-13.66704144,-15.0301554,63.18666822,-356.48364258000004,-300.63604662,119.0200518,57.69635742,11.232876712328766,set #2
1970-01-01 00:00:38.887309370,3.4659297466278076,0.33902156352996826,0.819481611251831,111.36264750000001,265.32601680000005,81.4926762,12.6271197,-556.6597959000001,-306.46565430000004,-38.693163600000005,-173.6674992,11.506849315068493,set #2
1970-01-01 00:00:38.897311506,3.469804286956787,0.34009429812431335,0.8215699195861816,-45.38101308,81.75588564,-109.24689984000001,-111.96614052,-1275.84404532,-306.16715220000003,-153.0713613,-237.3113613,11.780821917808218,set #2
1970-01-01 00:00:38.907455739,3.4737396240234375,0.3413124084472656,0.8237135410308838,215.91065457000002,348.59506266000005,-6.710452319999995,17.770019280000003,-1748.9004234000001,-399.05762754,-36.78331566,-120.28939845000001,12.054794520547944,set #2
1970-01-01 00:00:38.917324838,3.477796792984009,0.34256380796432495,0.8259916305541992,-117.5378295,-47.992575540000004,-365.19271464,-369.3123096,-1567.92306528,-288.73047762,-202.73042322,-237.8503023,12.32876712328767,set #2
1970-01-01 00:00:38.927046833,3.4819576740264893,0.34363362193107605,0.8285328149795532,145.08224445,282.61952511,319.19688294,369.63473703,-874.1651626500001,-207.7614591,241.02224445,138.06329277,12.602739726027396,set #2
1970-01-01 00:00:38.937543449,3.486268997192383,0.34472453594207764,0.8312075734138489,361.09855587,432.35985624,69.3433533,28.18009584,-887.2984731,-263.03831736,118.64472555,93.86980941,12.876712328767123,set #2
1970-01-01 00:00:38.947437582,3.490612745285034,0.34633851051330566,0.8338623642921448,343.52720453999996,466.08278574,241.86352476000002,247.95721080000004,-879.7018347,-213.20854074000002,168.97786152,65.26118118,13.150684931506849,set #2
1970-01-01 00:00:38.957279262,3.495068311691284,0.3477728068828583,0.8366372585296631,183.45058914,288.9567564,-144.37195499999999,-60.087544140000006,-578.00976168,-151.6435128,1.8142917,-85.20409092,13.424657534246574,set #2
1970-01-01 00:00:38.967153367,3.4995665550231934,0.3492024540901184,0.8395513296127319,-221.39945412,-83.53688343,-480.54467175,-403.00807599,-256.44154536,-61.80429801,-334.38074748,-157.08195477,13.698630136986301,set #2
1970-01-01 00:00:38.977397975,3.504180908203125,0.35032591223716736,0.842749297618866,-6.525518999999999,260.45347575,117.215046,166.15245075,-421.91287125,1.1578514999999996,-133.78609725,247.59927075000002,13.972602739726026,set #2
1970-01-01 00:00:38.987152872,3.508852958679199,0.3515651822090149,0.8460499048233032,34.03018944,324.76134288000003,126.35409072,292.083012,-474.90869712,26.35595664,-108.57346032,429.46478952,14.246575342465754,set #2
1970-01-01 00:00:38.997375068,3.5135557651519775,0.3533160388469696,0.8492686748504639,-593.04064716,-363.57161256,-764.83034316,-610.2918354,-773.28422184,-95.35574256,-578.36533248,221.23020504,14.520547945205479,set #2
1970-01-01 00:00:39.007284698,3.518279790878296,0.3547852337360382,0.852613627910614,145.56438546,272.37196896,-80.47458822,100.4611218,-821.2101729000001,-204.40580549999999,-93.51739254,111.58716582,14.794520547945204,set #2
1970-01-01 00:00:39.017482814,3.523055076599121,0.3561815321445465,0.8561367988586426,-24.43112568,189.00611496000002,-20.77222992,120.12081354,-540.5736999000001,-188.63139906,78.40904214,46.39615578,15.068493150684931,set #2
1970-01-01 00:00:39.027149972,3.5279502868652344,0.35730797052383423,0.8598695397377014,453.3639708,467.97107604,164.79267636,63.11692452,-315.29645004,-236.92576440000002,253.51669356000002,97.57638384,15.342465753424657,set #2
1970-01-01 00:00:39.037259635,3.532879590988159,0.35857123136520386,0.8636890053749084,215.6237148,127.6039596,-68.30024175,29.720281500000002,309.3020502,-186.4433415,158.4365055,-195.07990515,15.616438356164382,set #2
1970-01-01 00:00:39.047608671,3.537726879119873,0.3603202700614929,0.8673689365386963,29.58225777,153.55175355,94.64528736,116.86583805,998.33126055,-415.57616334,-134.68637325,-258.34930563,15.89041095890411,set #2
1970-01-01 00:00:39.057365474,3.5426602363586426,0.36181575059890747,0.871258020401001,-12.73716132,116.23911858000001,144.47796792,182.36922288,786.17975514,-651.85981068,-248.83032876000001,-258.12726108,16.164383561643834,set #2
1970-01-01 00:00:39.067381200,3.54764986038208,0.3629573881626129,0.8754713535308838,-371.070804,-393.767088,-271.663548,-265.283616,-366.62886000000003,-737.382516,-309.93237600000003,-189.52284,16.43835616438356,set #2
1970-01-01 00:00:39.077569780,3.552732229232788,0.364499032497406,0.8795920610427856,-303.9869976,-50.9140554,-41.8169856,-71.2163478,-218.8333212,-358.2465042,-352.0666968,-135.8652828,16.712328767123285,set #2
1970-01-01 00:00:39.087239322,3.557810068130493,0.3659125864505768,0.8838315606117249,81.92021604,165.06147606000002,211.19068074,283.632453,-402.52059276,-233.98188684000002,-251.1580188,88.83036396,16.986301369863014,set #2
1970-01-01 00:00:39.097282705,3.5629687309265137,0.3670766055583954,0.8883481025695801,-317.89368585,-578.18453745,-156.57292365,-207.17086650000002,247.38451725,-330.23444805,-841.04623005,-224.654703,17.26027397260274,set #2
1970-01-01 00:00:39.107346830,3.5681657791137695,0.3683232069015503,0.8930221199989319,596.8334034,-0.30334979999999945,349.38598890000003,312.15615990000003,-196.57316640000002,-345.68077050000005,-871.0195962,-303.51401730000003,17.534246575342465,set #2
1970-01-01 00:00:39.117554721,3.5733883380889893,0.369950532913208,0.8976202607154846,496.50975855,-177.31273872,-557.7702975000001,-692.81240184,-246.51265392,-376.52784507,-773.80143087,-609.74198103,17.80821917808219,set #2
1970-01-01 00:00:39.127266941,3.578623056411743,0.37142214179039,0.9023675918579102,1230.13446933,459.59980599,363.87689871000003,478.2625107,131.45263482000001,35.724266760000006,-697.24157061,-651.6303495000001,18.082191780821915,set #2
1970-01-01 00:00:39.137415227,3.5839149951934814,0.37292155623435974,0.9073176383972168,79.36625346,-596.40182004,-45.552281969999996,-197.99934921,-388.17198303,449.06604054,-1105.1829087,-775.8536058,18.356164383561644,set #2
1970-01-01 00:00:39.147714672,3.5891635417938232,0.37438175082206726,0.9122987389564514,851.07981504,-31.9385976,314.78864352,76.2412872,-95.64758111999993,-244.5119352,-819.70906992,-546.0889948800001,18.63013698630137,set #2
1970-01-01 00:00:39.157167491,3.594498872756958,0.3759251832962036,0.9175141453742981,1478.3889931200001,938.7499914,704.82153924,498.76510944000006,1134.95828277,-665.9267518800001,-567.12847737,-12.330592560000003,18.904109589041095,set #2
1970-01-01 00:00:39.167469558,3.599778413772583,0.3774355947971344,0.9228570461273193,82.39034466000001,13.518586380000002,292.2874383,-11.8515813,-806.76705408,-592.7151048000001,-688.28120166,-479.81661155999996,19.17808219178082,set #2
1970-01-01 00:00:39.177208242,3.60503888130188,0.37896886467933655,0.9283165335655212,441.22327703999997,388.59148614,719.31576054,226.80748350000002,862.83806856,-493.99518402,-404.3624637,-102.13152768,19.452054794520546,set #2
1970-01-01 00:00:39.187320766,3.6103250980377197,0.38064393401145935,0.9340218305587769,824.55569118,777.44422704,580.6450018200001,-165.69526896,2388.99016356,-410.2171008,-317.86738854,55.69939908,19.726027397260275,set #2
1970-01-01 00:00:39.197306928,3.6156067848205566,0.38232356309890747,0.9398586750030518,150.89029488,483.71266944,570.18228384,-252.86443727999995,2524.8253368,-348.95941392000003,-152.71034688,137.0128344,20.0,set #2
1970-01-01 00:00:39.207906541,3.6207993030548096,0.38403886556625366,0.9458959698677063,-646.10608218,-250.98138663,-552.81056142,-1891.46611602,472.99439577,-325.96710198,-959.36718267,-617.16233319,20.273972602739725,set #2
1970-01-01 00:00:39.217338142,3.6259617805480957,0.38580572605133057,0.9521461129188538,-1175.13144684,-646.7901398399999,-347.08156236,-901.11818238,1382.47279326,-576.8100000000001,-844.1081945400001,-423.21942858,20.54794520547945,set #2
1970-01-01 00:00:39.227070150,3.6310904026031494,0.3876742422580719,0.9586122632026672,-137.102355,289.015662,489.052356,411.4411275,168.2376345,-342.2901885,-240.704529,-181.96066199999999,20.821917808219176,set #2
1970-01-01 00:00:39.237375555,3.6361536979675293,0.3894735276699066,0.9651949405670166,-381.60013515,-94.12424775,573.5419969500001,64.74101205,-981.8847402,1.51319805,-318.07698585,-371.10654750000003,21.0958904109589,set #2
1970-01-01 00:00:39.248116550,3.641242742538452,0.3913552463054657,0.9720181822776794,631.271823,638.7418245,1121.113188,1355.4313695,-1016.1727485000001,-178.5163575,84.734988,-37.7527215,21.36986301369863,set #2
1970-01-01 00:00:39.257126388,3.6463136672973633,0.39327967166900635,0.9790448546409607,680.0326338000001,845.51668968,884.12401428,1277.71004868,-1976.91102024,-809.12212368,254.93479908,46.766885880000004,21.643835616438356,set #2
1970-01-01 00:00:39.267512140,3.6513805389404297,0.39560532569885254,0.986469030380249,263.53120559999996,385.43010480000004,94.5519822,546.0784992,-2251.9949868000003,-1177.221825,385.0867956,164.2101474,21.91780821917808,set #2
1970-01-01 00:00:39.277264175,3.656270980834961,0.39753860235214233,0.9935511350631714,-93.71098425,-152.809566,-134.70214875,-105.62147699999998,-963.4283197500001,-1406.85915825,-97.20093825000001,-23.478887250000003,22.191780821917806,set #2
1970-01-01 00:00:39.287360248,3.6611483097076416,0.3995307683944702,1.000902771949768,733.83230544,616.5682660800001,447.04436712000006,396.49695384000006,15.826462080000002,-1293.15036552,-9.5682288,-91.72015008,22.46575342465753,set #2
1970-01-01 00:00:39.297579584,3.665968179702759,0.40152427554130554,1.0084631443023682,529.8939609600001,558.80594016,655.00782048,517.0050911999999,444.87479712,-1429.0091587200002,106.14480864000001,48.895753920000004,22.73972602739726,set #2
1970-01-01 00:00:39.307203111,3.6707217693328857,0.40343284606933594,1.01612389087677,-112.84101582,-85.49872539,20.290210979999998,113.92106739,-89.2198281,-1843.0126045499999,37.25643402,-90.02309432999999,23.013698630136986,set #2
1970-01-01 00:00:39.317436037,3.6754212379455566,0.40541714429855347,1.023997187614441,784.97117478,1139.80971273,-36.88939371,449.5102404,-922.71887058,-1250.77320381,243.20332023,37.60729362000001,23.28767123287671,set #2
1970-01-01 00:00:39.327442464,3.680032968521118,0.40732595324516296,1.0319801568984985,563.52414144,898.80121344,125.93560511999999,532.6331712,464.8426848,-1414.43768544,33.106457279999994,75.01279968,23.561643835616437,set #2
1970-01-01 00:00:39.337177095,3.684563636779785,0.4091452360153198,1.0400733947753906,-924.0416016,-763.3245613500001,-1462.83923955,-1488.3833659499999,1947.18111705,-913.27781415,-1013.0415594,-719.0876667,23.835616438356162,set #2
1970-01-01 00:00:39.347450790,3.6890389919281006,0.41087278723716736,1.0482531785964966,-255.85213290000002,-270.65505870000004,29.946813,-72.50328540000001,2303.3743395,-1066.2884349,-165.774648,-155.4263607,24.109589041095887,set #2
1970-01-01 00:00:39.357570943,3.6934657096862793,0.41258031129837036,1.056611180305481,-112.37105334000002,39.810454320000005,947.82820938,810.95826357,2417.85109098,-1092.8921667299999,90.45780471,121.97822754,24.383561643835616,set #2
1970-01-01 00:00:39.367279109,3.6978206634521484,0.4142487943172455,1.065075397491455,434.11191915,504.12494847000005,775.5676472700001,665.84878854,4075.7003976,-919.76893203,93.28351266,186.51220302000002,24.65753424657534,set #2
1970-01-01 00:00:39.377389726,3.702085256576538,0.41578635573387146,1.0735834836959839,-151.07743871999998,116.19677238,-297.77406984000004,-739.0991384399999,2117.2806173999998,-1094.0541768,-150.79883754,-76.38684066,24.931506849315067,set #2
1970-01-01 00:00:39.387370405,3.7062973976135254,0.41721096634864807,1.082160472869873,-342.3647175,-106.55844615000001,646.39123185,532.9341556500001,2932.6795992,-1053.16523325,200.5934034,165.61927395,25.205479452054792,set #2
1970-01-01 00:00:39.397348937,3.71045184135437,0.4185865819454193,1.0908273458480835,-584.98398777,-718.94332068,-290.84617029000003,-519.45569637,1858.2207606299999,-937.31102985,98.33085132000001,62.469107609999995,25.479452054794518,set #2
1970-01-01 00:00:39.407208976,3.7145071029663086,0.4198814630508423,1.0995384454727173,239.6877912,235.9324968,502.3924776,92.62065696,2678.2768334400002,-893.62893984,349.66699872,152.13199872,25.753424657534246,set #2
1970-01-01 00:00:39.417456445,3.7184784412384033,0.42103371024131775,1.1082415580749512,57.23152305000001,-320.86130895,-263.3831382,-427.66553115,2947.3211274,-739.3367046000001,313.16598104999997,188.565,26.027397260273972,set #2
1970-01-01 00:00:39.427078304,3.722325086593628,0.4221406877040863,1.1170353889465332,717.47754624,692.07823776,380.44679712,52.8426288,3182.76749856,-633.0784512,270.17838431999996,205.61774688,26.301369863013697,set #2
1970-01-01 00:00:39.437372503,3.726095199584961,0.4232034385204315,1.125913381576538,1086.75583926,1191.74627832,1254.37082355,955.8590507700001,3424.3659021,-494.28513147,505.05664131,388.36575492,26.575342465753423,set #2
1970-01-01 00:00:39.447620925,3.729769229888916,0.4241984784603119,1.1348203420639038,-495.39739275,215.5081305,506.01923775,272.22118950000004,2767.4580375,-588.2906055000001,153.9029115,328.5993945,26.849315068493148,set #2
1970-01-01 00:00:39.457181034,3.733344078063965,0.4251311421394348,1.1437777280807495,-1219.1368870200001,-911.59485378,-616.3447999800001,-980.3795227200001,3576.46144596,-596.20243488,-253.58415810000002,20.23615698,27.123287671232877,set #2
1970-01-01 00:00:39.467297611,3.736786127090454,0.42603975534439087,1.152754783630371,-418.08804375,-466.89900036000006,-697.83877059,-877.66217136,3692.316342,-367.79329275,-244.58366166,-40.16402325,27.397260273972602,set #2
1970-01-01 00:00:39.477560577,3.7400856018066406,0.4269704818725586,1.1618223190307617,566.21964399,134.90476506,662.41314555,532.99538721,3293.08723926,46.82661711,334.57312395,331.69612203,27.671232876712327,set #2
1970-01-01 00:00:39.487477359,3.743258237838745,0.427837997674942,1.1708195209503174,612.97382952,448.48059633,286.74760685999996,88.78221066,2066.8345035,190.99398746999998,111.21397793999999,93.34905918,27.945205479452053,set #2
1970-01-01 00:00:39.497156677,3.7463138103485107,0.42863181233406067,1.1798537969589233,465.65594751,-188.64638988000002,239.12158764,301.277418,701.6606251200001,809.9930553,-123.24223898999999,-298.66678257,28.219178082191778,set #2
1970-01-01 00:00:39.507450160,3.749284267425537,0.42939990758895874,1.1889437437057495,833.9744088,417.865812,-10.238623199999992,-59.6155248,-5072.3825568,851.5990704000001,-66.56598000000001,-118.0548096,28.493150684931507,set #2
1970-01-01 00:00:39.517395553,3.752115249633789,0.4301094114780426,1.1979509592056274,7.8560593799999765,-144.11044205999997,642.32151555,1008.46041543,-2550.03353163,470.90890508999996,563.22517953,404.15196159000004,28.767123287671232,set #2
1970-01-01 00:00:39.527313051,3.7548279762268066,0.43080925941467285,1.206955909729004,608.11072101,299.36002472999996,-36.35635809,-143.39999895,-864.0669464700001,170.85542682000002,-164.80732593,-25.014337140000002,29.041095890410958,set #2
1970-01-01 00:00:39.537113962,3.7574191093444824,0.4314441978931427,1.2159805297851562,-917.42288664,-1061.64634134,-793.00710138,-657.52024494,-441.59351963999995,-335.89169094,-634.13375922,-350.79596526,29.315068493150683,set #2
1970-01-01 00:00:39.547425565,3.7598917484283447,0.4320739507675171,1.2250069379806519,16.60148295000002,-101.30559269999998,-76.95064649999999,331.66508115000005,-3179.47690125,182.3997981,-297.0559566,193.8447576,29.58904109589041,set #2
1970-01-01 00:00:39.557435331,3.7622246742248535,0.43274402618408203,1.2340668439865112,79.25004165000001,-243.97997364000003,981.2720735999999,2002.5387380700001,255.38420388,0.8476727999999998,203.88637581,414.30798123,29.863013698630134,set #2
1970-01-01 00:00:39.567023572,3.7644519805908203,0.43341222405433655,1.2430669069290161,929.58818784,686.87364876,801.93105252,1649.3727837600002,1167.2364287999999,-55.50923664,93.66347328,587.0382289199999,30.136986301369863,set #2
1970-01-01 00:00:39.577272949,3.7665841579437256,0.43400129675865173,1.2520354986190796,-56.36693478000001,67.69517859,76.62790863000001,1351.77251391,1499.1478944,73.12690242,-13.573297529999998,300.83830335000005,30.410958904109588,set #2
1970-01-01 00:00:39.587313470,3.7685890197753906,0.43458831310272217,1.2609866857528687,1432.6126932,550.5096636000001,1961.1878598,2490.7063389,46.276725299999995,-149.31238530000002,315.6001602,525.0797799,30.684931506849313,set #2
1970-01-01 00:00:39.597120819,3.7704877853393555,0.4351406395435333,1.2699172496795654,777.03927678,178.36452894,1188.94145331,1884.3652163699999,527.42488305,-645.51747858,374.08637721,608.85400329,30.95890410958904,set #2
1970-01-01 00:00:39.607333955,3.7723069190979004,0.43563541769981384,1.278822898864746,-91.88270519999999,-1164.2793513000001,43.97112720000001,430.5513654,-4023.5616759000004,-11.309859599999982,-263.85752445,-75.7254615,31.232876712328764,set #2
1970-01-01 00:00:39.617464122,3.774029016494751,0.4359622895717621,1.2876546382904053,-189.67002132,156.62044554,40.36596408,-181.83550476,-5189.351760840001,83.99742,-81.87198006000001,211.13532258,31.506849315068493,set #2
1970-01-01 00:00:39.627077875,3.775707483291626,0.43616369366645813,1.296493649482727,-591.591585,214.84749,-635.7664462500001,-832.54474875,-179.03262,335.20699874999997,-301.76830125000004,-10.876271250000002,31.78082191780822,set #2
1970-01-01 00:00:39.637334165,3.7773687839508057,0.4362763464450836,1.305331826210022,-765.59860845,-1023.4863678,-573.86352855,-436.62731579999996,-315.85472100000004,256.40651205,80.26364775,160.2671655,32.054794520547944,set #2
1970-01-01 00:00:39.647669849,3.7789509296417236,0.43635085225105286,1.3140491247177124,157.95269840999998,-52.476028410000005,1094.6380575,968.30818578,1354.91826171,574.7185134599999,518.8828803600001,457.08649701,32.32876712328767,set #2
1970-01-01 00:00:39.657389698,3.780466318130493,0.43637895584106445,1.3226585388183594,-1149.9135367200001,-1214.31716484,-347.80603806,-716.4268285200001,-442.32890910000003,421.23449783999996,333.50291442,254.93274143999997,32.602739726027394,set #2
1970-01-01 00:00:39.667417583,3.7818892002105713,0.43641409277915955,1.33116614818573,-766.58598822,-959.3958355799999,29.798568930000002,-311.31428367,-91.40355939,167.16427572,291.17563683000003,230.4341676,32.87671232876712,set #2
1970-01-01 00:00:39.677109775,3.783196449279785,0.4364736080169678,1.3395789861679077,-1070.06438175,-1203.97326075,-529.4153085,-985.032282,-1256.19408525,-165.73245,-229.943727,-146.77252199999998,33.150684931506845,set #2
1970-01-01 00:00:39.687361297,3.784327507019043,0.43657350540161133,1.3479278087615967,-262.80839403,-625.1022371099999,12.051498809999998,-270.69057756,-1373.29458318,-358.38691473,319.93630539000003,516.0386641800001,33.42465753424657,set #2
1970-01-01 00:00:39.697211322,3.7852659225463867,0.4367474913597107,1.3562570810317993,1247.96901372,832.35063522,1964.16278682,1653.5255919,-169.34809943999997,-389.16775326,500.49330162,576.7133400600001,33.6986301369863,set #2
1970-01-01 00:00:39.707366762,3.7860043048858643,0.43701452016830444,1.3646727800369263,1413.3326727,-757.2301737,208.06112028,112.28316762000001,250.75547562,-339.173718,-250.67109366,-15.672064200000003,33.97260273972603,set #2
1970-01-01 00:00:39.717902240,3.786611557006836,0.43736201524734497,1.3731334209442139,2951.4633408,976.5918864,623.328264,148.58706719999998,559.2747264000001,-271.69178400000004,-18.056376,362.1618624,34.24657534246575,set #2
1970-01-01 00:00:39.727190551,3.787081480026245,0.4377211034297943,1.3815871477127075,1823.5670450399998,207.03514181999998,-550.94055783,-829.35234954,453.201489,-192.25619205,-258.03839373,-158.91944094000002,34.52054794520548,set #2
1970-01-01 00:00:39.737230119,3.7874743938446045,0.43801411986351013,1.3900861740112305,2425.8312542099998,406.60308585,2003.8602795900001,1591.58425452,-242.57926368,526.9856034300001,335.46361290000004,104.87458449000002,34.794520547945204,set #2
1970-01-01 00:00:39.747272071,3.7878458499908447,0.4381670653820038,1.3985321521759033,1324.0393842,-248.4279213,632.99201862,175.38840267000003,3403.34690748,-598.58782893,-22.90301442000001,65.02541604,35.06849315068493,set #2
1970-01-01 00:00:39.757156667,3.788254976272583,0.43817687034606934,1.406808853149414,1583.87702343,-641.7593796900001,588.8749584899999,448.74027315,-1452.22498863,1561.98703791,329.16641745,280.41125229000005,35.342465753424655,set #2
1970-01-01 00:00:39.767148075,3.7887587547302246,0.43801307678222656,1.4149816036224365,2002.66445925,1124.524011,1116.608532,1367.8871115,-4962.658194,274.69879125,526.137534,337.70650875,35.61643835616438,set #2
1970-01-01 00:00:39.777872858,3.789334774017334,0.43760332465171814,1.4229744672775269,2514.21465906,2732.09994798,1872.6572046,2250.9907368,-696.5159331,-326.32832856,661.6526654400001,590.0058567,35.890410958904106,set #2
1970-01-01 00:00:39.787478981,3.789930582046509,0.4370638430118561,1.4307515621185303,457.32441378,2045.80687428,1713.47864025,2008.81917405,2933.3336853600003,39.053381250000015,99.32926848,370.23719109,36.16438356164383,set #2
1970-01-01 00:00:39.797821578,3.7905564308166504,0.43637359142303467,1.4383184909820557,-1203.5622612,386.13531762,-330.97106562,-135.24223361999998,2444.20692516,133.35657192000002,-434.44682969999997,-259.14264557999996,36.438356164383556,set #2
1970-01-01 00:00:39.807343778,3.7911720275878906,0.43558555841445923,1.445754885673523,119.42013563999998,1217.76557526,-927.16056888,-502.79430864,1768.85894718,-56.061364319999996,-265.13522958,-32.10080484,36.71232876712329,set #2
1970-01-01 00:00:39.817730245,3.7917189598083496,0.4347308278083801,1.4530913829803467,587.33572755,1659.9685537500002,1700.0477481,1484.3463258,721.4071741500001,-106.89031274999999,249.12868305,121.54983164999999,36.986301369863014,set #2
1970-01-01 00:00:39.827317056,3.792151689529419,0.4338550567626953,1.4603382349014282,-313.76992608,936.9458592000001,-51.99782016000002,83.41691903999998,907.36468992,-150.61990944000001,229.80813024,-0.9297225599999948,37.26027397260274,set #2
1970-01-01 00:00:39.837428150,3.792375326156616,0.43307313323020935,1.4676008224487305,-1988.9603955,-0.0717405000000042,-1422.659862,-1423.070649,2099.7550665000003,-706.4093985000001,-88.602891,-290.2379025,37.534246575342465,set #2
1970-01-01 00:00:39.847480831,3.7925491333007812,0.4322652220726013,1.474774956703186,259.75311297,1860.50502144,1676.6207682900001,1429.38628755,2223.53881152,-439.00167558000004,1166.7510706799999,647.0797885500001,37.80821917808219,set #2
1970-01-01 00:00:39.857240734,3.7926366329193115,0.4315165579319,1.4818241596221924,-754.12678224,545.54757894,90.59189022,-361.41130818,524.4612952800001,-1046.8759236,471.49802934,211.08658350000002,38.082191780821915,set #2
1970-01-01 00:00:39.867909965,3.7926058769226074,0.4308464527130127,1.488789439201355,23.87153145000002,833.3192302499999,-523.44574035,-738.6739327500001,1393.16010405,-2919.39645465,-179.58305235,-306.59725979999996,38.35616438356164,set #2
1970-01-01 00:00:39.877188739,3.7924458980560303,0.4303048551082611,1.495625376701355,330.68042865,617.49880257,1106.98041636,845.81834571,-2699.16160098,-1407.32852052,571.34430522,285.62259647999997,38.630136986301366,set #2
1970-01-01 00:00:39.888061103,3.7922444343566895,0.4298723042011261,1.5021005868911743,365.38220745,264.43355718000004,858.58694883,523.28838042,-5941.875795180001,-230.15491004999998,438.07081812,121.70610777,38.90410958904109,set #2
1970-01-01 00:00:39.897335348,3.7917685508728027,0.4297490417957306,1.5084831714630127,-1244.62014144,-969.67550004,225.00830352,5.8691505600000085,-2636.9724966,176.638215,139.10343096,-204.89421108,39.17808219178082,set #2
1970-01-01 00:00:39.907331762,3.791086435317993,0.42982879281044006,1.5147758722305298,-563.1866799,-342.99352074,-35.75453622,-25.65739254000001,-2917.78671522,1294.09974876,145.09813812000002,-129.51035682000003,39.45205479452055,set #2
1970-01-01 00:00:39.917730150,3.790236473083496,0.4299679100513458,1.5208779573440552,-56.2088085,-129.7330125,1060.3596705,484.91260350000005,-2461.15857,2918.7333825,436.5393435000001,174.12064800000002,39.726027397260275,set #2
1970-01-01 00:00:39.928046045,3.789156913757324,0.4303586184978485,1.5267837047576904,-267.15004485,-477.28889325,-74.8060443,-206.0447532,-1991.46683385,3450.50129775,447.43430745,180.61514250000002,40.0,set #2
1970-01-01 00:00:39.937368450,3.787910223007202,0.43091660737991333,1.532549262046814,-612.3555165,-346.30742250000003,98.9133795,140.21272199999999,-1717.9982235,4044.733017,343.1351235,22.841013000000004,40.273972602739725,set #2
1970-01-01 00:00:39.947386560,3.7865169048309326,0.43154215812683105,1.5381603240966797,-802.8229872000001,-702.0685776,-64.30569599999995,-84.91579200000001,-553.8458016,4031.3388336,184.86018719999998,-84.74088479999999,40.54794520547945,set #2
1970-01-01 00:00:39.957150754,3.7850351333618164,0.43219584226608276,1.5436336994171143,-796.21133982,-852.90248862,-902.6980989,-499.8398613,-2189.02875984,4095.8035248,-11.595058800000004,-332.68657967999997,40.821917808219176,set #2
1970-01-01 00:00:39.967469511,3.7835774421691895,0.43281087279319763,1.5488253831863403,-872.62158906,-909.0860539800001,129.07707734999997,363.01796777999994,-2485.85293437,4785.354704910001,572.85977619,210.03847566,41.0958904109589,set #2
1970-01-01 00:00:39.977526006,3.7821614742279053,0.43339306116104126,1.5536705255508423,-1160.08805328,-1057.09725108,-478.291671,-350.24270112,-1607.0990941200002,4560.29813148,450.3654402,172.91583348,41.36986301369863,set #2
1970-01-01 00:00:39.987506446,3.780811071395874,0.43392205238342285,1.5581551790237427,246.27555342,366.17575332,1523.9521752,1032.5450421,-1713.14539032,4765.61322042,803.83225884,487.27435457999997,41.64383561643835,set #2
1970-01-01 00:00:39.997786102,3.779582977294922,0.4343525767326355,1.5622894763946533,-731.86313694,-641.0384526,707.8131746399999,289.1003232,-1089.4412724,4427.04943122,418.96417055999996,-58.69605846,41.91780821917808,set #2
1970-01-01 00:00:40.007640180,3.7784557342529297,0.43470537662506104,1.5661273002624512,-851.8620084,-634.7965962000001,-553.6426974000001,-705.2702591999999,-790.4066196,3872.6052768,39.469817400000004,-110.9465136,42.1917808219178,set #2
1970-01-01 00:00:40.017554101,3.7774899005889893,0.43488648533821106,1.5697451829910278,-17.105244000000003,-137.12349768,2146.00933404,1394.05057194,-1182.87437853,3755.43049947,896.03932509,519.62842269,42.465753424657535,set #2
1970-01-01 00:00:40.027349290,3.7766406536102295,0.4349680542945862,1.573087215423584,-14.738415900000007,-378.45888990000003,987.4963254000002,246.21243270000002,-604.3141065000001,3196.3099428,726.6849837000001,515.7933261000001,42.73972602739726,set #2
1970-01-01 00:00:40.038071212,3.775928020477295,0.4349307417869568,1.5760973691940308,-1059.16559736,-864.4734618,-1103.64744204,-1130.96989356,-1394.19504588,2724.953634,154.10787912,-67.50726372,43.013698630136986,set #2
1970-01-01 00:00:40.047894058,3.7753660678863525,0.434810608625412,1.5787817239761353,10.283693159999984,180.98917667999999,1063.8093102,-52.47816678000004,-910.6609940999999,2364.69332736,418.36030782,454.3494462,43.28767123287671,set #2
1970-01-01 00:00:40.057237205,3.774932384490967,0.43461939692497253,1.581099271774292,-92.84398305000002,-368.06665935,1558.04531025,734.7656511,-362.74876365,2333.99145525,525.36883815,162.26115165,43.56164383561644,set #2
1970-01-01 00:00:40.067677555,3.7745983600616455,0.43441396951675415,1.5831855535507202,180.6497394,-58.18831394999998,630.3300666,306.91071255,-915.1428195,1951.3362414,483.56708205,345.55084980000004,43.83561643835616,set #2
1970-01-01 00:00:40.077340660,3.7743611335754395,0.43421173095703125,1.5849741697311401,450.1949712,321.2828736,1208.2796544,729.1561992000001,1122.1393248,1759.5085326,394.2727854,172.6071048,44.10958904109589,set #2
