,x,y,z,emg_1,emg_2,emg_3,emg_4,emg_5,emg_6,emg_7,emg_8,percentage,Source
1970-01-01 00:00:18.017277946,3.4376392364501953,0.32114270329475403,0.8053106665611267,109.670106,-208.78433004,-258.08400072,-709.3558251,3361.68264588,100.54402722,99.65853144,-215.24526114,0.0,set #1
1970-01-01 00:00:18.028032054,3.4409236907958984,0.323257714509964,0.8076552152633667,146.56236114,-115.86240354,106.98467988,-297.77544732,3547.1034635399997,54.949947,186.64485372000001,-159.02509116000002,0.3067484662576687,set #1
1970-01-01 00:00:18.037146797,3.4442319869995117,0.3253353238105774,0.8100119829177856,-4.155008130000001,-183.76076394,118.89656142,-323.0351826,3446.7301077300003,2.6245182600000003,138.61862118,-176.48541534,0.6134969325153374,set #1
1970-01-01 00:00:18.047013273,3.4476184844970703,0.3272433578968048,0.812447726726532,487.33088235,434.57564709,613.8411766500001,14.435353140000002,3021.9839999700002,1.8395882700000001,487.27923543,142.31217663,0.9202453987730062,set #1
1970-01-01 00:00:18.056869258,3.4510583877563477,0.32910123467445374,0.8149954080581665,-64.34794002,-28.077934559999996,-11.796472739999999,-396.8580798,2922.4222833000003,60.26809386,104.16513978,-124.48235046,1.2269938650306749,set #1
1970-01-01 00:00:18.066996803,3.4547462463378906,0.33071717619895935,0.8176591992378235,110.71487739,46.498288200000005,301.85527047000005,-199.32514797,2965.0051395900005,0.19076498999999814,125.95579035,-155.92893069,1.5337423312883436,set #1
1970-01-01 00:00:18.077679862,3.4585177898406982,0.33224332332611084,0.8203479647636414,40.72220879999999,79.9172088,327.24799302,-132.53817642,2642.84615244,117.53163785999999,243.63187368,54.898395240000006,1.8404907975460123,set #1
1970-01-01 00:00:18.087306013,3.462419033050537,0.33354535698890686,0.823090136051178,-202.96983837,-186.40656372,347.67027399,-130.63081746,2576.73097188,85.35361263,231.9673941,58.00394339999999,2.147239263803681,set #1
1970-01-01 00:00:18.096971025,3.4665486812591553,0.334793359041214,0.8259455561637878,62.40402675000001,12.069096000000002,357.74123775,-150.60638774999998,2158.64449125,166.68008175,236.1777015,109.3966965,2.4539877300613497,set #1
1970-01-01 00:00:18.107392539,3.470836877822876,0.3359431326389313,0.8288106918334961,-453.74241822,-379.11626649,-280.33834842,-959.04779178,1974.48618042,123.02046081,-51.48499941000001,-189.38539308,2.7607361963190185,set #1
1970-01-01 00:00:18.117224683,3.475315570831299,0.33695971965789795,0.8317076563835144,43.6404384,43.24308768,1032.34971372,502.23972435,1489.37799036,154.49673564,643.52465892,403.09829625,3.067484662576687,set #1
1970-01-01 00:00:18.128134956,3.479992151260376,0.3378738760948181,0.834743857383728,132.88125864,251.74152432,386.09739324000003,-12.450696959999998,1327.10094504,-33.66166596,309.67553136000004,156.87922692,3.374233128834356,set #1
1970-01-01 00:00:18.137756338,3.484822988510132,0.3385961651802063,0.8378488421440125,134.6763366,153.44797104,321.13972254,-78.43230642,1283.12086968,19.62524148,352.05134874000004,201.54540666,3.6809815950920246,set #1
1970-01-01 00:00:18.147219409,3.4898064136505127,0.3393610119819641,0.8410376310348511,-79.06227186,-102.13149219,630.342804,54.30539166,1159.79250309,105.81176697000001,265.86066897,-2.529263880000002,3.9877300613496933,set #1
1970-01-01 00:00:18.157050600,3.4948647022247314,0.34006109833717346,0.8443296551704407,-333.24057,-319.28286,143.665236,-157.01306399999999,1116.134526,111.207876,-46.796958000000004,-245.393928,4.294478527607362,set #1
1970-01-01 00:00:18.167411556,3.500074625015259,0.3406810760498047,0.8477493524551392,46.371455520000005,65.70353556,556.1653016399999,297.8491074,415.1576676,82.69838304000001,212.92576812000001,6.43134336,4.601226993865031,set #1
1970-01-01 00:00:18.177838077,3.5054421424865723,0.34127160906791687,0.8513772487640381,104.58179784,66.20714217,119.82164727,-178.69695441,93.20085723,269.18189922,134.37570666000002,65.88975705,4.9079754601226995,set #1
1970-01-01 00:00:18.187756290,3.5109140872955322,0.3419484794139862,0.8551016449928284,101.2473267,51.695872800000004,446.8141821,155.3266026,372.9810318,186.9921105,74.8805811,-22.233077100000003,5.214723926380368,set #1
1970-01-01 00:00:18.197672834,3.516484498977661,0.34275877475738525,0.8589683771133423,-104.94767243999999,-207.83287746000002,124.91895936,-24.135313800000006,128.01748596000002,-279.89962104,-132.55354632,-200.2956306,5.521472392638037,set #1
1970-01-01 00:00:18.208240737,3.5221738815307617,0.34411635994911194,0.8632119297981262,381.18184611000004,301.51413864,774.56937324,609.09373161,-843.3097374,-188.01608631,450.87569241,74.54077293,5.828220858895706,set #1
1970-01-01 00:00:18.217330684,3.527918577194214,0.34511080384254456,0.8675179481506348,-257.77102728,-212.47147584,282.93382260000004,130.09289748,-1705.55340384,49.74312564,190.17027432,-130.58237087999998,6.134969325153374,set #1
1970-01-01 00:00:18.228357543,3.5335986614227295,0.34622088074684143,0.8719329833984375,-197.8342548,-472.10132385,266.10999441,179.82424823999997,-3351.9302980800003,209.12716071,-59.7288354,-92.19684318,6.441717791411043,set #1
1970-01-01 00:00:18.242607583,3.5393290519714355,0.34746405482292175,0.8764768242835999,167.15769291,122.18145303,512.09937714,120.27524925,-2447.39840748,-785.73133743,224.19362354999998,57.18343137,6.748466257668712,set #1
1970-01-01 00:00:18.247258653,3.5452332496643066,0.34893926978111267,0.8813769221305847,587.6765423100001,291.59339586,474.36148812,184.7737203,-2010.5098416,-493.70186814000004,128.05242879,288.81853689,7.0552147239263805,set #1
1970-01-01 00:00:18.257617702,3.5509533882141113,0.35076919198036194,0.8861246705055237,467.85190373999995,156.53681784,1312.73599314,866.11030584,-1056.3649106399998,-139.98176634,194.80973538,110.55580068,7.361963190184049,set #1
1970-01-01 00:00:18.266853799,3.556752920150757,0.35260671377182007,0.8911294341087341,41.03860722,-145.36657668,966.86716308,562.1884413600001,-501.80886015,-66.47735913000001,226.28201388,151.67362977000002,7.668711656441718,set #1
1970-01-01 00:00:18.277962436,3.5625529289245605,0.3546723425388336,0.8964362144470215,61.101030120000004,-76.15422048,624.8384844,157.4314716,1257.8133812400001,-29.1767502,144.44761344,-115.38717996,7.975460122699387,set #1
1970-01-01 00:00:18.287571420,3.568551778793335,0.35685086250305176,0.9021697044372559,-52.9831458,-247.2309762,406.0456374,-251.1608424,3787.039854,235.3645554,75.2968008,-93.20981280000001,8.282208588957054,set #1
1970-01-01 00:00:18.297079792,3.574471950531006,0.35907262563705444,0.9080621004104614,67.6510848,73.62758832,707.48681952,151.13912736,1607.551608,698.1092664,91.69108416,-90.81269184000001,8.588957055214724,set #1
1970-01-01 00:00:18.308239450,3.5802454948425293,0.3613884747028351,0.9141097664833069,-462.6483615,-584.022504,-627.9809055000001,-1186.0267965,1073.3745945,806.683839,-317.1300015,-549.9421590000001,8.895705521472394,set #1
1970-01-01 00:00:18.317038526,3.5860111713409424,0.3637791574001312,0.9202360510826111,318.84589932,311.01290766,682.47123984,311.41302192,-155.7027654,181.91441892,463.09722888000005,-220.68414810000002,9.202453987730062,set #1
1970-01-01 00:00:18.327988376,3.5917458534240723,0.36631736159324646,0.926727831363678,153.90394967999998,340.83680904,757.09217064,247.81116984,380.87494848,14.139996,174.2293488,26.260812240000007,9.50920245398773,set #1
1970-01-01 00:00:18.337760438,3.5974762439727783,0.36889970302581787,0.9334254860877991,753.7284877200001,770.4433705800001,1878.97179444,1164.2479446,-294.9513099,64.8171459,629.0023162800001,356.68301916,9.815950920245399,set #1
1970-01-01 00:00:18.347771158,3.6031439304351807,0.37143197655677795,0.9402297139167786,-647.32183152,-582.5434017,212.89264151999998,-132.06170406,18.91326996,12.78182724,252.07787045999999,-349.78876452000003,10.122699386503069,set #1
1970-01-01 00:00:18.357216110,3.608835220336914,0.3739314377307892,0.9471404552459717,323.903814,415.5086052,1405.596777,1249.7519385,193.52773050000002,-7.543321500000001,532.3978881,112.6310796,10.429447852760736,set #1
1970-01-01 00:00:18.367217054,3.614534378051758,0.37641003727912903,0.9542713165283203,-521.9334010800001,-299.6892756,-277.37466432,-425.89668732,-19.09789752,-34.76746026,78.63792846,-154.2147438,10.736196319018404,set #1
1970-01-01 00:00:18.377905359,3.6202502250671387,0.3786372244358063,0.9615291953086853,-481.67451228,-528.48382587,0.4833808200000007,-319.73127303,-121.85075175,-215.43407223,-178.29136104,-38.38766763,11.042944785276074,set #1
1970-01-01 00:00:18.387300958,3.6258738040924072,0.38090425729751587,0.9689098000526428,235.32263507999997,105.74227482,729.5763306,492.84581346,-368.91996804,-202.90139454,9.002158620000003,-45.607699020000005,11.349693251533743,set #1
1970-01-01 00:00:18.397129049,3.6313915252685547,0.38304656744003296,0.976302444934845,308.02116657000005,161.90239494,1034.40815049,842.45907447,-254.67020241000003,-243.13321539,283.86416409,147.80408838,11.656441717791411,set #1
1970-01-01 00:00:18.407057991,3.63688063621521,0.3851684033870697,0.9838755130767822,-577.43559081,-307.33709682,385.43630930999996,-36.47833215,-145.87319058,-281.56539411,30.58632603,65.07709611,11.963190184049079,set #1
1970-01-01 00:00:18.417174091,3.6422741413116455,0.3871747553348541,0.9916126728057861,206.47574805000002,594.5890407600001,599.46511794,496.69091238,99.68702211,12.93310668,111.22888335,89.91059064,12.269938650306749,set #1
1970-01-01 00:00:18.427852621,3.6476666927337646,0.3889690041542053,0.9993888139724731,-97.09883118,79.50480798,199.71569514,110.1742161,553.65398673,28.6437723,33.37857237,-31.648816680000003,12.576687116564418,set #1
1970-01-01 00:00:18.436965694,3.6530187129974365,0.3907420337200165,1.0072839260101318,-1182.3435897,-863.27822412,-762.44507664,-714.5891859599999,61.26075696000001,212.28133602,-380.60616672000003,-321.8837934,12.883435582822086,set #1
1970-01-01 00:00:18.447587003,3.6583640575408936,0.3923824429512024,1.0153658390045166,-464.40721626000004,-410.92544532,-172.88179935000002,-70.13664294,-586.3042251300001,575.4279940499999,-329.04436773,-211.52556243,13.190184049079754,set #1
1970-01-01 00:00:18.457352151,3.663722276687622,0.3938100039958954,1.023607850074768,-44.46444600000001,264.99634278,726.3779487900001,783.97951008,250.71353424,-93.62626143,68.02558854,136.37519415,13.496932515337424,set #1
1970-01-01 00:00:18.467467536,3.6689441204071045,0.39525890350341797,1.032039999961853,536.99954256,835.02512496,1235.63585808,1543.2069057600002,452.6661984,-491.76208224,458.69430048000004,438.70041696,13.803680981595093,set #1
1970-01-01 00:00:18.477666845,3.673996686935425,0.396698921918869,1.040528655052185,327.2164974,625.76254065,940.2614442,1111.9542642,1593.85867095,459.90594975,119.67285915000001,284.0488872,14.110429447852761,set #1
1970-01-01 00:00:18.488055934,3.6789588928222656,0.3980233073234558,1.0491137504577637,605.8770143400001,455.65737984000003,1070.50551582,1023.5746302599999,431.74272258,-521.0181857399999,-154.14634872,88.3118574,14.417177914110429,set #1
1970-01-01 00:00:18.497386684,3.68385648727417,0.3993130028247833,1.057929277420044,-703.33375008,-786.6099586800001,-757.44559644,-486.95412324,643.61277708,-376.41271356,-390.5310396,-268.15769136,14.723926380368098,set #1
1970-01-01 00:00:18.507148256,3.6886303424835205,0.40047547221183777,1.0667123794555664,-581.12378688,-915.00912672,-776.5829136,-542.97632064,827.8113043200001,-1009.1817216000001,-692.67741504,-388.65313344,15.030674846625768,set #1
1970-01-01 00:00:18.517547597,3.693307876586914,0.4015640914440155,1.0755139589309692,1419.90637698,579.10296093,409.00855437,681.30406968,747.9619820400001,-1507.08327666,-71.3195301,31.97207286,15.337423312883436,set #1
1970-01-01 00:00:18.527822484,3.6979877948760986,0.4025055766105652,1.084419846534729,543.56086668,39.97858488000001,455.50069343999996,678.72375012,105.53658648,-1083.22391112,-193.53329112,70.90625412,15.644171779141104,set #1
1970-01-01 00:00:18.537076225,3.7026314735412598,0.4033483862876892,1.0934888124465942,-176.4590685,-716.7789427499999,363.53344949999996,91.26000975,-738.2084189999999,-425.46452325,-417.10358625000003,-309.61505250000005,15.950920245398773,set #1
1970-01-01 00:00:18.547717800,3.707292079925537,0.4040139615535736,1.1025986671447754,-82.246944,-498.40650600000004,292.590636,-94.850886,-901.40115,-987.429768,-548.5151880000001,-334.630374,16.257668711656443,set #1
1970-01-01 00:00:18.557177534,3.711855888366699,0.40472081303596497,1.1118160486221313,671.56456848,397.18372122,1146.04175088,510.01231242000006,-1563.48884874,-579.08064162,102.44056056,234.62916905999998,16.56441717791411,set #1
1970-01-01 00:00:18.567221393,3.7164924144744873,0.4051291048526764,1.1210362911224365,394.16773695,393.90192582000003,1314.6851035500001,811.3338370800001,-1362.30297372,-296.76574980000004,-6.601879050000008,265.99163136000004,16.87116564417178,set #1
1970-01-01 00:00:18.578005065,3.7210607528686523,0.4056236445903778,1.1305958032608032,-1318.85726505,-1118.6007261,-942.6215721000001,-1429.45163205,-671.13808125,-451.4196336,-766.4767188000001,-475.1797401,17.177914110429448,set #1
1970-01-01 00:00:18.587273349,3.725496768951416,0.4060600697994232,1.1402277946472168,-202.35840651,-99.38057025,-310.627668,-670.54836576,-1423.39385214,66.52204806,-478.59872463,-156.66347697,17.484662576687118,set #1
1970-01-01 00:00:18.597182741,3.7298433780670166,0.4064193069934845,1.149854063987732,503.36328861000004,654.5130384,1052.13880239,783.76932972,-1199.3559474,-431.3122788,-24.899611229999998,56.63215818,17.791411042944787,set #1
1970-01-01 00:00:18.607056846,3.734058141708374,0.40653160214424133,1.159428596496582,105.44444352000001,179.06218902,1454.62560828,1085.3046672,-534.85734588,-770.9725491,232.81616748,310.68815466,18.098159509202453,set #1
1970-01-01 00:00:18.617256393,3.7381997108459473,0.40655624866485596,1.169059157371521,-733.03150791,-407.40827751,381.04049724000004,110.79543032999999,-106.56868130999999,17.283351539999998,-96.46358709,99.72163499999999,18.404907975460123,set #1
1970-01-01 00:00:18.628602495,3.7422776222229004,0.4068432152271271,1.17910897731781,-263.63684685000004,606.10417725,268.16707515,228.73433895,-237.7215789,135.31882845,-370.16561985,-66.5596893,18.711656441717793,set #1
1970-01-01 00:00:18.636863460,3.7461419105529785,0.4071043133735657,1.1890524625778198,-1064.561589,1.851041400000014,474.59577360000003,329.856618,-18.171917399999998,403.5607446,-71.6267292,304.6887792,19.01840490797546,set #1
1970-01-01 00:00:18.647792806,3.7498092651367188,0.407335102558136,1.1989208459854126,-1268.52184524,-403.5728112,-20.549582820000005,-74.85778092,-280.58506788,234.40796418,-389.57407164,-74.90018484,19.32515337423313,set #1
1970-01-01 00:00:18.657130470,3.75317645072937,0.4076906144618988,1.208801507949829,-1726.8943964999999,-833.533662,-1395.4901648999999,-1480.9099617,-25.8777948,-65.73459360000001,-682.5034749,-286.6183944,19.631901840490798,set #1
1970-01-01 00:00:18.667050352,3.756396532058716,0.4078819751739502,1.218461513519287,1012.8375192000001,1163.46346896,2424.1445592,2157.0636172800005,505.81723296,1624.92168384,577.36766256,735.3359270400001,19.938650306748468,set #1
1970-01-01 00:00:18.678044071,3.7587544918060303,0.4091078042984009,1.228325366973877,-295.42018311,38.478921,577.55883588,391.95036855,-2357.19613818,-884.55892941,-118.19646578999999,168.16443618,20.245398773006137,set #1
1970-01-01 00:00:18.687346925,3.761523723602295,0.4092572331428528,1.2375239133834839,-604.8686085,-179.62970024999998,249.62939625,55.14507375000001,-649.74796575,-915.1376325,-519.98236875,-56.14203075000001,20.552147239263803,set #1
1970-01-01 00:00:18.697378387,3.764274835586548,0.4092463552951813,1.2467211484909058,-340.41244263,330.43710140999997,490.3671864,219.92152104,-990.25898049,1661.99027631,-279.95193369,68.88130938,20.858895705521473,set #1
1970-01-01 00:00:18.707462539,3.7669267654418945,0.409412145614624,1.2559089660644531,-857.87439036,14.477890829999993,-251.98970784000005,-656.66178474,768.67011195,2500.52761257,-432.73340565,-93.41757906000001,21.165644171779142,set #1
1970-01-01 00:00:18.717087259,3.769428014755249,0.4095326066017151,1.2651129961013794,825.4872085200001,934.67988393,1516.3417425,980.87883582,214.88457354,1532.0131015800002,-71.29589103,148.87100826,21.47239263803681,set #1
1970-01-01 00:00:18.728105297,3.771331787109375,0.41066622734069824,1.2748581171035767,-119.26974969,81.81481152,448.63046982,184.40246058,520.56711603,2106.78355836,-159.63675585,-44.863636740000004,21.779141104294478,set #1
1970-01-01 00:00:18.737355937,3.773425340652466,0.4108467996120453,1.2839350700378418,-385.3236231,-282.18848541,644.4359184900001,86.91808164,426.07577259,1852.85433996,-131.3507715,7.876267619999998,22.085889570552148,set #1
1970-01-01 00:00:18.747429838,3.775479555130005,0.4108656346797943,1.292875051498413,113.32847135999998,339.24309978,-20.456726160000017,-532.12861572,104.30865198000004,2771.76679572,-253.27370874,58.781316360000005,22.392638036809817,set #1
1970-01-01 00:00:18.757240047,3.777413845062256,0.41097548604011536,1.3017683029174805,190.22630094,401.71911195,959.18807166,222.20999385000002,-993.6911840700001,2502.90931878,-79.18097109,80.49982238999999,22.699386503067487,set #1
1970-01-01 00:00:18.767186393,3.7794222831726074,0.41114839911460876,1.3108373880386353,1005.62247552,1027.54459587,2280.9314147100004,1414.04967093,166.81967601,815.44932573,326.71711527,431.83719033,23.006134969325153,set #1
1970-01-01 00:00:18.777455320,3.7813351154327393,0.41115158796310425,1.3197017908096313,959.3778167999999,1017.3037524,2044.0160363999998,1397.8440684,142.8635988,1474.4090244,354.8948208,263.76012000000003,23.312883435582823,set #1
1970-01-01 00:00:18.787879219,3.783132314682007,0.41109320521354675,1.3284223079681396,-609.23307159,-804.1707375000001,-424.92079929000005,-1022.5276495200001,528.03084126,2215.60044693,-319.22211594,-59.247626100000005,23.619631901840492,set #1
1970-01-01 00:00:18.797219028,3.7849233150482178,0.41095051169395447,1.336936593055725,-122.20216631999999,-319.85981976,1267.00838316,636.24197988,54.0063264,1323.9178695599999,102.60016572,335.51732136000004,23.926380368098158,set #1
1970-01-01 00:00:18.807240238,3.786756992340088,0.4106009602546692,1.3454078435897827,149.39676024,94.17862038000003,1197.45120144,602.6698002,316.21653882,1232.28846702,-113.36490594,-15.254742359999998,24.233128834355828,set #1
1970-01-01 00:00:18.817041625,3.7884814739227295,0.41022056341171265,1.3540472984313965,-546.6694837499999,-234.20967374999998,1991.36013375,1108.9311675,182.1614925,1774.889415,162.37416,268.05085125,24.539877300613497,set #1
1970-01-01 00:00:18.828056325,3.790085554122925,0.4098113477230072,1.3627277612686157,533.56053075,434.90907525,1615.664505,1083.08439525,167.8294605,1346.42908725,174.91518525,169.65486525,24.846625766871167,set #1
1970-01-01 00:00:18.837232341,3.79158878326416,0.4093705415725708,1.3710464239120483,713.53740393,558.29692737,1401.72475404,823.1430246,245.26287279000002,1757.03195811,199.18218294000002,196.6088163,25.153374233128837,set #1
1970-01-01 00:00:18.847521057,3.793030023574829,0.4088684022426605,1.3791847229003906,-572.78279136,-332.38047843,-1013.26459026,-1265.09670885,202.1122662,1364.65315467,-340.62506127000006,-200.30943894,25.460122699386503,set #1
1970-01-01 00:00:18.857468833,3.794379711151123,0.40834376215934753,1.3872863054275513,707.0594625900001,623.87848068,1065.14693922,553.57657836,-207.04189739999998,1352.60249631,336.03569219999997,422.12482572,25.766871165644172,set #1
1970-01-01 00:00:18.867252340,3.7956671714782715,0.4076994061470032,1.3952144384384155,569.1229128,514.2772518,1073.6181456,577.7157827999999,121.13668320000001,1185.3343086,-145.07995320000003,-97.4955618,26.073619631901842,set #1
1970-01-01 00:00:18.877941360,3.7968575954437256,0.4070424735546112,1.402971625328064,417.635868,275.6469144,1347.2441736,786.5193024,-262.2000576,1587.7116528,301.3498176,244.1221224,26.380368098159508,set #1
1970-01-01 00:00:18.887872924,3.7979416847229004,0.4064280688762665,1.4105714559555054,-978.88016772,-1022.9190582000001,-783.54964116,-1180.6466802,-244.28249664,1938.47978844,-395.0037546,-406.73388288,26.687116564417177,set #1
1970-01-01 00:00:18.897392024,3.7988996505737305,0.4058103561401367,1.418107509613037,298.78730544000007,194.18967048000002,756.00160584,761.14993656,-167.74548959999998,-193.7736372,78.33103512,-17.020454880000006,26.993865030674847,set #1
1970-01-01 00:00:18.907161703,3.799699544906616,0.40516936779022217,1.4254355430603027,1162.32981969,1101.79703829,1903.3309764300002,1631.16831306,-303.96590406,722.31001557,329.72324657999997,179.01572754,27.300613496932517,set #1
1970-01-01 00:00:18.917163839,3.8003830909729004,0.4045358896255493,1.4325075149536133,-407.37660795,-591.87281205,689.08458294,502.69546548000005,-244.95204551999998,1399.97239941,52.48308663000001,79.5583113,27.607361963190186,set #1
1970-01-01 00:00:18.927416553,3.8009090423583984,0.40402910113334656,1.4394147396087646,903.83334015,733.5134742,1626.68893608,1627.13471544,-1108.4071482900001,1131.10348455,513.86153403,462.58132167,27.914110429447852,set #1
1970-01-01 00:00:18.937841644,3.8013484477996826,0.4035278558731079,1.4461475610733032,812.4582195600001,725.58280236,1027.04679168,1064.8163292,-1922.6343520799999,-112.53232535999999,144.37495956,62.26970567999999,28.220858895705522,set #1
1970-01-01 00:00:18.947115888,3.8016674518585205,0.40300366282463074,1.452627182006836,341.79661152,387.81948816,2179.88183088,1598.3375553600001,-262.58235744,-1383.66478224,433.75152288000004,240.54186624000002,28.52760736196319,set #1
1970-01-01 00:00:18.957277050,3.801893711090088,0.40250688791275024,1.4588534832000732,180.552684,82.38016800000001,961.8695385000001,743.154282,-2696.587491,-1203.174219,144.92407799999998,-8.641971000000002,28.834355828220858,set #1
1970-01-01 00:00:18.967224111,3.802131414413452,0.40195339918136597,1.4648432731628418,296.44783974,-198.15567525,62.96251260000001,267.63508941,-2772.62721996,1013.64942081,-112.21118493,-140.22694959,29.141104294478527,set #1
1970-01-01 00:00:18.977658739,3.80228853225708,0.4014025032520294,1.470748782157898,564.99697956,288.59828400000004,865.83473379,662.7502167,-1572.77915769,797.5896427199999,45.75425088,174.90615909000002,29.447852760736197,set #1
1970-01-01 00:00:18.988380661,3.8023757934570312,0.40082210302352905,1.4763392210006714,-289.8048387,-348.91824708,572.5906492800001,432.36011325,203.20260323999997,-1297.5101076600001,100.29420453,40.913960880000005,29.754601226993866,set #1
1970-01-01 00:00:18.997267951,3.802480459213257,0.400174081325531,1.4815372228622437,-818.48672802,-910.5636087600001,-687.52151442,-805.54637202,-3279.96907407,2485.7768145600003,-619.8148479900001,-646.2163453200001,30.061349693251536,set #1
1970-01-01 00:00:19.006983985,3.8026552200317383,0.3994733393192291,1.4864894151687622,639.9175321499999,129.41265089999996,1087.1148463499999,858.3880344,-1444.7424478499997,-577.1073555,293.70235635,160.3861935,30.368098159509202,set #1
1970-01-01 00:00:19.017249813,3.802877426147461,0.3986556828022003,1.4913313388824463,689.63333322,289.76329785,920.47497204,451.19077107,-372.51403995000004,918.57048777,297.55906791,351.08693256000004,30.67484662576687,set #1
1970-01-01 00:00:19.029046287,3.803135633468628,0.39771586656570435,1.4959259033203125,200.77050123,95.44887807,1216.41063453,963.2201096699999,-602.21078034,1444.7002568700002,312.98096778,147.27719799,30.98159509202454,set #1
1970-01-01 00:00:19.036969175,3.8033788204193115,0.3967808783054352,1.5003106594085693,802.89207375,467.41641375,637.7088607500001,736.2839250000001,-231.09815625,1782.291342,275.67891000000003,106.58314874999999,31.288343558282207,set #1
1970-01-01 00:00:19.047089805,3.803745985031128,0.39578136801719666,1.504420280456543,-289.54751475,-584.7463596,-272.24941965,-228.74167095,799.8521076,1257.4111017,-269.88667095,-294.64793475,31.595092024539877,set #1
1970-01-01 00:00:19.057251443,3.8041741847991943,0.3946494162082672,1.5083980560302734,271.40820408,3.1197191999999916,196.66523994,357.30612684000005,481.05599568,2362.80852834,119.45916723,-77.10547572000002,31.901840490797547,set #1
1970-01-01 00:00:19.067011346,3.8045647144317627,0.3934875428676605,1.5121541023254395,-63.9205515,-40.38931650000001,555.0669727200001,540.37087104,479.67405563999995,2220.4150004400003,80.08044174,73.97228202000001,32.20858895705521,set #1
1970-01-01 00:00:19.077624788,3.8049871921539307,0.39226460456848145,1.5155853033065796,-571.5208574400001,-644.6524718400001,-705.3146178000001,-567.97602888,36.10316268,2749.3086379200004,-230.03441448,-290.9697648,32.515337423312886,set #1
1970-01-01 00:00:19.087575426,3.8054449558258057,0.3910076320171356,1.518746256828308,-709.6804798200001,-635.4513796800001,-773.8201653000001,-621.97640934,972.0561084,1728.3707695800001,-267.7696281,-136.63190034,32.82208588957055,set #1
1970-01-01 00:00:19.097202053,3.8059186935424805,0.3896986246109009,1.5216878652572632,-331.91706366000005,-350.26940871,37.58042379,213.9687186,-124.23131994,1763.3051373600001,41.44312731,-71.30817252,33.12883435582822,set #1
1970-01-01 00:00:19.107220878,3.8063626289367676,0.3882873058319092,1.524351716041565,-867.292413,-783.67482024,-695.6955189600001,-567.3740514,717.8714477999999,2492.3036790600004,-231.55176018,-220.82797463999998,33.43558282208589,set #1
1970-01-01 00:00:19.117416372,3.806847333908081,0.3867896497249603,1.5265529155731201,-32.56892964,-57.888383280000006,-159.17054244000002,104.19640140000001,-858.75883236,3527.6502612,-83.8784778,-184.66431048,33.74233128834356,set #1
1970-01-01 00:00:19.127895345,3.8073861598968506,0.385283887386322,1.5283235311508179,824.9781111000001,535.8525958500001,1042.16311095,949.3010085,-193.66403355,819.5622084,340.0622316,243.26542890000002,34.04907975460123,set #1
1970-01-01 00:00:19.137202730,3.80808424949646,0.3836700916290283,1.5295392274856567,64.42925579999999,-14.619879299999994,823.4008029,782.9522025,946.1839725,-104.8141887,105.2089038,129.17675160000002,34.355828220858896,set #1
1970-01-01 00:00:19.147175302,3.808894157409668,0.3818674385547638,1.5303452014923096,-862.36296822,-685.66569474,-997.59372024,-964.97312418,965.75888448,-535.32849786,-228.93266838,-210.62523066,34.66257668711656,set #1
1970-01-01 00:00:19.157200803,3.8098034858703613,0.38002562522888184,1.5307505130767822,589.88984457,390.26544258,862.08871593,801.82116846,1435.63077411,-1255.41789126,174.25634304,138.75066387,34.969325153374236,set #1
1970-01-01 00:00:19.167215576,3.810803174972534,0.37817925214767456,1.5309231281280518,42.36238968000001,18.323753759999995,-262.84158888,-52.90315368,1262.44854216,173.43728064,43.33878432,50.622439920000005,35.2760736196319,set #1
1970-01-01 00:00:19.177680482,3.811858654022217,0.3762989044189453,1.5310009717941284,81.6819666,39.09641502,-381.64779197999997,-25.907940240000002,-43.11225515999999,-381.48269484,-22.86875994,43.194049080000006,35.582822085889575,set #1
1970-01-01 00:00:19.187268009,3.8128886222839355,0.3744799792766571,1.5309674739837646,168.42171489,193.81673376,195.4519437,404.75839833,193.6629006,-1447.83291081,169.99829769,187.81353279,35.88957055214724,set #1
1970-01-01 00:00:19.197394361,3.8138527870178223,0.37279748916625977,1.5308057069778442,-629.62436511,-403.68284424,-705.51835497,-458.18944977,1178.55474048,-2282.17320552,-195.13209651,-60.40615971,36.19631901840491,set #1
1970-01-01 00:00:19.207288017,3.814732313156128,0.3713266849517822,1.5306227207183838,-415.56800298,-495.72652584,-1385.50511814,-727.63086708,-372.06628641,1149.03263865,-373.33236135,-281.34087384000003,36.50306748466258,set #1
1970-01-01 00:00:19.217200746,3.8154921531677246,0.3701113164424896,1.5304268598556519,-64.80963294,-277.29238368,-81.19921991999999,229.80918246,-775.4312233200001,3224.10414846,-93.90913272,-62.02282944,36.809815950920246,set #1
1970-01-01 00:00:19.228113403,3.8160948753356934,0.369074285030365,1.530224084854126,211.31353503,215.56942562999998,-45.41483544,187.07943852,-98.04702804,2139.82391571,-45.1736415,-52.78468377,37.11656441717791,set #1
1970-01-01 00:00:19.237306108,3.816606044769287,0.3682146370410919,1.5298973321914673,-210.82074156,-278.650281,-15.093354119999987,74.52548064,237.96398340000002,1858.07190192,-32.53285776,-10.597296839999998,37.423312883435585,set #1
1970-01-01 00:00:19.247401704,3.817077159881592,0.36754104495048523,1.5294746160507202,204.59327616000002,146.07438456,76.4057268,265.27076472,-179.36086584000003,2846.439492,-25.564690320000004,-120.24651288,37.73006134969325,set #1
1970-01-01 00:00:19.257496109,3.8175103664398193,0.3670000731945038,1.5290277004241943,159.07599786000003,213.98708838,5.494927620000027,194.15400693,-166.81453191,2789.25344646,-66.32654847,-7.730185320000004,38.03680981595092,set #1
1970-01-01 00:00:19.267520656,3.8178906440734863,0.3665449619293213,1.528449535369873,51.49068912,-74.98399584,317.27281248,289.19564544,-0.004006080000000356,2694.64099632,119.72336064000001,74.55776639999999,38.34355828220859,set #1
1970-01-01 00:00:19.278209438,3.818228244781494,0.3662506341934204,1.5275747776031494,257.3588433,-23.57184336,-353.62866318,-114.6670278,-441.27921083999996,2324.26703808,-102.8938287,-125.41022988,38.65030674846626,set #1
1970-01-01 00:00:19.287322750,3.818507671356201,0.36610838770866394,1.5265569686889648,135.2103675,90.09107250000001,90.45747750000001,139.9523775,-870.2183100000001,1719.9853125,202.64214750000002,112.9224525,38.95705521472393,set #1
1970-01-01 00:00:19.297523965,3.818779468536377,0.3660770058631897,1.5254199504852295,-585.23577255,-565.34577255,-471.92844660000003,-150.96651960000003,-123.68353139999999,756.7419015,-21.517971149999997,-112.6832343,39.263803680981596,set #1
1970-01-01 00:00:19.307218780,3.8190181255340576,0.36606696248054504,1.5241974592208862,80.754453,221.6234982,101.0870874,182.2072746,134.4871554,615.8588904000001,21.8864568,-53.493780599999994,39.57055214723926,set #1
1970-01-01 00:00:19.317372074,3.8192403316497803,0.3660995066165924,1.522707462310791,82.83551406000001,65.76616722,-75.66795132000001,-51.31960236,92.23107347999999,894.5080934399999,67.87008618,104.71627608,39.877300613496935,set #1
1970-01-01 00:00:19.328647603,3.8194682598114014,0.3661600351333618,1.5210020542144775,590.09740062,270.70986618,1187.7013703100001,1093.76746011,248.13135047999998,755.29748736,230.18463078,319.79967786,40.1840490797546,set #1
1970-01-01 00:00:19.337779035,3.819730758666992,0.3662218451499939,1.5191189050674438,523.85284965,328.3317102,-232.56647505,51.72320985,230.7994026,532.8035290500001,-7.638553650000002,108.3140916,40.490797546012274,set #1
1970-01-01 00:00:19.347371330,3.819981813430786,0.3662721812725067,1.5170562267303467,-147.5527092,-281.0670798,-729.1767093,-415.6520901,100.5526431,468.2690844,-184.7707446,-62.0685975,40.79754601226994,set #1
1970-01-01 00:00:19.357225646,3.820221185684204,0.366355299949646,1.5147706270217896,120.31190106,106.52310864,422.52738605999997,408.00938412,11.694558719999998,385.16457798,-12.658724520000002,26.57310864,41.104294478527606,set #1
1970-01-01 00:00:19.367229928,3.820476531982422,0.3664364516735077,1.5122840404510498,-162.92169192,-228.02604864,-590.55928776,-553.4411532,34.5719556,5.788832399999999,-443.10532656,-273.56205864,41.41104294478528,set #1
1970-01-01 00:00:19.378205528,3.8207919597625732,0.3664063513278961,1.5095642805099487,101.21509008000001,12.474196800000005,636.2978544,320.99695055999996,24.2564244,-355.08311592,-13.934553359999999,46.147973040000004,41.717791411042946,set #1
1970-01-01 00:00:19.387265434,3.821171998977661,0.36620280146598816,1.5064963102340698,445.56284136,416.97007248,413.30363178,280.0225038,27.02305398,-2013.0812481,95.64851166,117.79656564,42.02453987730061,set #1
1970-01-01 00:00:19.397467126,3.821615219116211,0.3658708930015564,1.5029934644699097,25.63911947999999,-235.94293944,208.35703512,440.02901280000003,1389.8800882199998,-5381.504359920001,-141.82926186,-118.23426186,42.331288343558285,set #1
1970-01-01 00:00:19.407200803,3.8220839500427246,0.36554765701293945,1.499279499053955,-313.88348238000003,-404.4621516,49.10943492,126.30985146,1400.78965611,-3540.8029975500003,-70.5054441,29.85376953,42.63803680981595,set #1
1970-01-01 00:00:19.417511930,3.822582244873047,0.365145206451416,1.495430588722229,-659.6330988000001,-1043.9992952999999,-650.0929890000001,-438.4942068,-2389.3005591,2231.2852926,-221.73402420000002,-134.7213231,42.94478527607362,set #1
1970-01-01 00:00:19.428402652,3.823030948638916,0.36472654342651367,1.4914911985397339,495.28385399999996,497.74128299999995,336.77181096,439.24330163999997,-1584.44727324,2408.10873264,66.37101276,48.135737520000006,43.25153374233129,set #1
1970-01-01 00:00:19.437273015,3.823378086090088,0.36432957649230957,1.4874199628829956,7.830966,228.4037925,-99.4239714,139.62,-1865.21347935,1742.7731217,60.0036762,-21.897558150000002,43.558282208588956,set #1
1970-01-01 00:00:19.447699537,3.8236730098724365,0.3639627993106842,1.483274221420288,-353.73036426,-194.18551736999999,-399.87801477,-142.41644664,140.54607177000003,2552.22608238,175.84161036,-55.0098627,43.86503067484663,set #1
1970-01-01 00:00:19.457356204,3.8239524364471436,0.36358553171157837,1.4790419340133667,-140.8140942,-69.21895188,-761.61638124,-371.05875456,-931.8327205200001,1413.9476644800002,172.17136404000001,32.73467652,44.171779141104295,set #1
1970-01-01 00:00:19.467333307,3.824188232421875,0.363168865442276,1.4746739864349365,43.549671360000005,-413.40144807,-596.56545039,-193.24034769,-998.72415786,1858.8041784,-81.63937353,-173.61584214,44.47852760736196,set #1
1970-01-01 00:00:19.478064527,3.8243799209594727,0.36273467540740967,1.4699949026107788,-250.88132355000002,70.13913894000001,-1107.50025789,-694.27074951,-992.1152046,965.18095908,-101.9546931,-8.61886545,44.785276073619634,set #1
1970-01-01 00:00:19.488559236,3.8245506286621094,0.36233416199684143,1.464970350265503,50.29179636,74.33516376,-451.64489760000004,20.591163839999997,-940.37222448,1286.88618396,-37.29375468,-93.05055084,45.0920245398773,set #1
1970-01-01 00:00:19.496922960,3.8246819972991943,0.3620009422302246,1.4598299264907837,507.7493616,561.7042704,-274.68364560000003,246.11717520000002,-1010.2802736,1347.4276608,186.90072959999998,214.3474008,45.398773006134974,set #1
1970-01-01 00:00:19.507045974,3.824770450592041,0.361540824174881,1.4544751644134521,77.02266936,60.205667340000005,246.28551090000002,323.33907216000006,-387.30616626,889.06081368,-70.55444682,9.879863760000001,45.70552147239264,set #1
1970-01-01 00:00:19.516908636,3.824777364730835,0.3610822856426239,1.448915958404541,-88.00187915999999,35.1505206,-19.299933120000006,-105.39424272,602.0974861200001,1725.37456884,-254.95946268000003,-36.18117204,46.012269938650306,set #1
1970-01-01 00:00:19.527858486,3.824751615524292,0.3606336712837219,1.443105697631836,-78.13538772,146.58199218,-195.79362894,-145.70448516,-811.1478156600001,-5034.3036081,-281.64271278,-83.44890528,46.31901840490798,set #1
1970-01-01 00:00:19.537646284,3.8247203826904297,0.3601093590259552,1.437099575996399,-419.95499051999997,-229.03917348000002,-175.77021852,-123.22442184000002,85.32066504000001,-6388.9800000000005,-257.61976656,4.39950732,46.625766871165645,set #1
1970-01-01 00:00:19.547313442,3.824619770050049,0.3596208393573761,1.4309406280517578,-100.81452107999999,-100.49362128000001,-635.04320022,-518.6916618,-1366.39968114,-5163.6603688800005,-444.48069666,-169.24578372,46.93251533742331,set #1
1970-01-01 00:00:19.557164421,3.824427366256714,0.359140008687973,1.424455165863037,-550.43678937,-368.38667814,-1318.48604316,-1036.98494055,232.03859640000002,3068.72159295,-492.42236823,-276.59259069,47.239263803680984,set #1
1970-01-01 00:00:19.567543020,3.824100971221924,0.3587723970413208,1.417660117149353,201.907758,161.784987,168.3271122,292.1362158,-1598.1259164,4122.5415972,-40.0285626,87.84521459999999,47.54601226993865,set #1
1970-01-01 00:00:19.578247060,3.8236560821533203,0.3584267795085907,1.410588264465332,21.885629999999992,250.460106,362.1925788,354.2939712,-1473.5507514,1747.1796342,238.1567214,149.3996166,47.852760736196316,set #1
1970-01-01 00:00:19.587366333,3.823198080062866,0.3582346439361572,1.4029507637023926,-92.11122024,204.57994596,-143.31314517,-6.753207240000002,-2101.91923617,2400.96868557,180.54086388,121.28790491999999,48.15950920245399,set #1
1970-01-01 00:00:19.597921361,3.8225889205932617,0.3580859899520874,1.3950198888778687,-361.78633842,-100.57790573999999,-529.33387299,-381.13703862,-1862.37479493,2241.5879327400003,149.12280162,-25.93912971,48.466257668711656,set #1
1970-01-01 00:00:19.607300748,3.8218681812286377,0.35804644227027893,1.3869383335113525,-3.563314559999995,69.81437580000001,40.91026524,131.49337344,-904.400796,951.52722132,338.17063956,90.07043448,48.77300613496933,set #1
1970-01-01 00:00:19.617851963,3.8211097717285156,0.3580940365791321,1.3789490461349487,636.7931949599999,476.21740062,762.09198585,794.95277667,-1477.4228835600002,-2432.86107441,571.5197884500001,393.04173558,49.079754601226995,set #1
1970-01-01 00:00:19.628081550,3.820340394973755,0.3582155108451843,1.3710764646530151,264.421014,402.353796,205.725897,220.974468,325.4648085,-6388.9800000000005,418.9167255,289.7454105,49.38650306748466,set #1
1970-01-01 00:00:19.636997451,3.8194377422332764,0.35838717222213745,1.3631508350372314,-914.35553079,-597.74427882,-1608.75894699,-1471.35368913,-3242.50168515,1231.0412255700003,-183.2778207,-127.12064859,49.693251533742334,set #1
1970-01-01 00:00:19.647418489,3.8184640407562256,0.3586388826370239,1.3551180362701416,-8.971528410000019,543.99534813,147.12576606,362.08128411,995.63043996,-3027.10126524,578.28743778,616.82765547,50.0,set #1
1970-01-01 00:00:19.657211532,3.8174009323120117,0.35846689343452454,1.347381591796875,-509.21952120000003,102.16516127999999,-182.16640884,69.37574592,-234.81157752000001,-625.45337712,423.25550904,455.46025199999997,50.30674846625767,set #1
1970-01-01 00:00:19.667088737,3.8163609504699707,0.3583250641822815,1.3395075798034668,-137.30531217,392.14964763,-573.69400998,-224.10892764000002,-272.01768672000003,45.83099196,-183.53753534999998,747.31919379,50.61349693251534,set #1
1970-01-01 00:00:19.677601566,3.815300464630127,0.35822010040283203,1.3313853740692139,137.86735482,176.80942188,-352.3724178,-72.4069476,-662.27391828,780.47933964,311.04681270000003,4.399059600000001,50.920245398773005,set #1
1970-01-01 00:00:19.687368144,3.8142285346984863,0.3582237958908081,1.3230993747711182,189.10549632,-89.84735136,-252.04046400000001,-36.46304688,299.21221824,-5670.9289416,424.29483408,-58.72460256,51.22699386503068,set #1
1970-01-01 00:00:19.697092285,3.8131561279296875,0.3581857681274414,1.3147121667861938,591.80692935,233.0825133,-623.9354335500001,-226.96056629999998,1077.05538135,-1130.7533133,219.1057167,63.764424749999996,51.533742331288344,set #1
1970-01-01 00:00:19.707113018,3.812021255493164,0.35808295011520386,1.3062437772750854,116.6019192,245.39260356,-598.67677272,-248.22855174,-989.73943614,-411.6120255,298.15891794000004,169.37378406,51.84049079754601,set #1
1970-01-01 00:00:19.717094650,3.8107516765594482,0.3579084873199463,1.2975722551345825,-450.23089799999997,-278.6926935,-582.2443380000001,-317.96155949999996,182.169975,-237.927885,148.5185715,122.4110355,52.147239263803684,set #1
1970-01-01 00:00:19.727717151,3.809434413909912,0.3577805757522583,1.2887661457061768,34.89206682,79.11795567,-693.3863114100001,-410.40435579,-139.05200010000001,-3512.49971163,89.86882202999999,-108.84048902999999,52.45398773006135,set #1
1970-01-01 00:00:19.737089862,3.8080337047576904,0.3574124574661255,1.2798893451690674,-546.0386061,-139.90392936,-1265.23632222,-921.2923005,2056.4636859,1735.1254034400001,-29.544714420000005,-130.04609982,52.760736196319016,set #1
1970-01-01 00:00:19.747317304,3.8066301345825195,0.35701921582221985,1.2710374593734741,402.06628176000004,338.92401504000003,177.72732431999998,546.0863148,-1077.92054448,195.15886103999998,71.30974656000001,37.12501728,53.06748466257669,set #1
1970-01-01 00:00:19.757307519,3.805046319961548,0.3564769923686981,1.262027621269226,14.843724089999995,223.79899113,-287.77398117,-66.12081606000001,3114.3011191500004,-6104.7401883,186.37777119,176.77878504,53.374233128834355,set #1
1970-01-01 00:00:19.768287649,3.8034679889678955,0.35598692297935486,1.2532089948654175,246.91014777,278.80225659,-568.8857694,-287.03619165,-283.53019695,1496.09744544,20.70782337,120.40817295000001,53.68098159509203,set #1
1970-01-01 00:00:19.778272380,3.801828145980835,0.35536932945251465,1.2443312406539917,515.1365622000001,277.8334806,-344.163729,-0.18968819999999909,631.081503,4162.5273222,56.6515326,133.9356252,53.987730061349694,set #1
1970-01-01 00:00:19.787257661,3.7999606132507324,0.35473355650901794,1.2352216243743896,50.39305128,-93.36109341,-754.09109646,-413.81231502,2478.2070787499997,-830.6579377200001,-72.91207326,-10.3947558,54.29447852760736,set #1
1970-01-01 00:00:19.797025432,3.798021078109741,0.353879451751709,1.226062536239624,1037.07619392,218.01070511999998,-320.82459240000003,73.24853328,2400.24755568,2052.88173792,46.1317116,-0.8763861599999998,54.60122699386503,set #1
1970-01-01 00:00:19.807555189,3.7959632873535156,0.3530133366584778,1.2168338298797607,1230.79941777,211.21542195,-5.84203971,499.46753142,-758.22886308,5673.45014574,61.052315220000004,108.72998955,54.9079754601227,set #1
1970-01-01 00:00:19.817085018,3.793793201446533,0.3521837294101715,1.2076700925827026,-151.95138738,-998.80738854,-1526.34681264,-1051.1853822599999,2579.42986704,-4139.6967432599995,-487.8783897,-262.88478684,55.21472392638037,set #1
1970-01-01 00:00:19.827542057,3.7914950847625732,0.3512926697731018,1.1986593008041382,332.44406091,-120.72505575,-99.42636795,135.02733699,2398.1045969399997,-1779.8837394,216.66497852999998,130.36389366,55.52147239263804,set #1
1970-01-01 00:00:19.837274541,3.7889318466186523,0.35067349672317505,1.1898119449615479,581.0687337,69.28882311,-518.1856485,-291.80558979,2241.16411935,-2080.66823601,17.49973446,115.82221911,55.828220858895705,set #1
1970-01-01 00:00:19.847573986,3.786186933517456,0.3500240445137024,1.18104887008667,156.64221924,-244.65288978,-201.2860902,-76.79187126,1925.1470191199999,-1513.7580525600001,3.0487649400000008,196.79547342,56.13496932515338,set #1
1970-01-01 00:00:19.857200374,3.783269166946411,0.34953439235687256,1.1725364923477173,34.45951782,-396.96384390000003,-424.57205154,-296.34378852,1877.08099488,-73.01919612,53.894443980000005,256.97123634,56.441717791411044,set #1
1970-01-01 00:00:19.868233194,3.7802326679229736,0.3489380478858948,1.1641637086868286,443.16857442,63.27576918,-260.1047319,335.7334227,2023.0528016399999,-1243.2487509,234.49806275999998,183.68334504,56.74846625766871,set #1
1970-01-01 00:00:19.878656377,3.7770421504974365,0.348408967256546,1.1559219360351562,122.42531652000001,-199.73385471,-128.64169383,170.26481081999998,1905.9079962,-2139.67593528,252.57711804000002,332.99806878000004,57.05521472392638,set #1
1970-01-01 00:00:19.888025989,3.7737672328948975,0.34792134165763855,1.1476978063583374,306.36831576000003,-242.04460605,-428.14268484,114.69739515,3658.08017016,-5773.28176932,-83.37407130000001,159.06689994,57.36196319018405,set #1
1970-01-01 00:00:19.898103704,3.770348072052002,0.3475474715232849,1.139578104019165,-118.1050104,-305.57800728,-710.3228870400001,-104.35243728,2222.24734368,1734.5151969600001,-171.07564344000002,103.03799688,57.668711656441715,set #1
1970-01-01 00:00:19.907948722,3.7667617797851562,0.34720349311828613,1.131566047668457,154.01529546,52.945361819999995,-398.64522594,-12.31502844,-1380.59058618,5976.6266274,68.12527176,100.4452449,57.97546012269939,set #1
1970-01-01 00:00:19.917382946,3.763007640838623,0.3469740152359009,1.123702883720398,93.03765899999999,-7.794268560000001,31.0155963,438.89421732,-1597.8327323400001,3264.24162012,308.40416256,171.2583834,58.282208588957054,set #1
1970-01-01 00:00:19.927582731,3.759138345718384,0.3467002809047699,1.1158573627471924,-182.27738334,-281.4453018,-700.94637522,-390.90201306,-2197.0383727500002,3976.1384909999997,17.02671126,-80.62771938,58.58895705521473,set #1
1970-01-01 00:00:19.937311401,3.755204916000366,0.34649136662483215,1.1081479787826538,-90.55388823000001,-390.96991245000004,-521.554332,-219.13831017,-901.34121012,1855.14794439,206.68240944,172.1094531,58.895705521472394,set #1
1970-01-01 00:00:19.946910133,3.751239776611328,0.3461983799934387,1.1005926132202148,-371.46445401,-391.76161986,-360.31744359,32.61721398,-1053.55753191,1092.57476952,257.63120877,104.97043869000001,59.20245398773006,set #1
1970-01-01 00:00:19.957178344,3.747253179550171,0.34585636854171753,1.0931702852249146,-72.38350392000001,64.97225904,-291.45793248,-61.00892304,-2105.513124,-4973.8227552,221.0939796,144.68751648,59.50920245398773,set #1
1970-01-01 00:00:19.967406501,3.7432069778442383,0.34555476903915405,1.085813045501709,-504.84232305,-408.6517695,-745.09103643,-653.98516716,-2147.66186544,-440.20947282,-126.99585483,-160.61504901,59.8159509202454,set #1
1970-01-01 00:00:19.977961053,3.7391388416290283,0.345182329416275,1.0785605907440186,-78.96227196,-43.33845087,-159.15080025,-119.18072283,-1606.88916453,4762.46488809,58.00163499,74.60413077,60.12269938650307,set #1
1970-01-01 00:00:19.987135877,3.735006332397461,0.34470704197883606,1.0714442729949951,-453.58123863,-399.24775293,-1080.4432953599999,-1089.15615237,-2492.2687186800003,2857.78824513,-79.26763337999999,21.15034974,60.42944785276074,set #1
1970-01-01 00:00:19.996913423,3.7309134006500244,0.34422534704208374,1.064246416091919,-108.6961473,106.00147545,-157.75734468000002,-109.99490229,-2268.88782588,-1866.72971667,228.46828406999998,220.83186372,60.736196319018404,set #1
1970-01-01 00:00:20.007354488,3.726722002029419,0.3437659442424774,1.057124376296997,-119.55920808,-45.18270744,-528.45177528,-606.8453258400001,-2072.8991649600002,1316.2011595200001,122.87297568,4.579220879999999,61.04294478527608,set #1
1970-01-01 00:00:20.017226209,3.722489595413208,0.3433005213737488,1.0501466989517212,241.77019230000002,238.95348789,-186.34333263,-181.89879630000001,739.6312864199999,-5754.87649503,247.20919587,98.34053775000001,61.34969325153374,set #1
1970-01-01 00:00:20.027668466,3.718200922012329,0.34290820360183716,1.0433628559112549,-328.5661392,-383.19140183999997,-764.26306632,-732.58376724,-1149.3953562,2385.32618766,-9.81526182,-113.05745567999999,61.65644171779141,set #1
1970-01-01 00:00:20.037186613,3.7138614654541016,0.342475563287735,1.036697268486023,37.49497674,26.7672093,-147.16973271,-53.02938381,-395.36781336,3147.89219667,153.30552315,56.484697620000006,61.96319018404908,set #1
1970-01-01 00:00:20.047221889,3.709496021270752,0.34200912714004517,1.0301071405410767,184.63956459,187.74378207,-332.36653671000005,-227.3448606,4799.69467341,-5466.95423469,-33.61016217,-183.28947351,62.26993865030675,set #1
1970-01-01 00:00:20.056986560,3.7049577236175537,0.34133660793304443,1.0236797332763672,-486.6152928,-392.24259359999996,-955.1194848,-832.2117648000001,2128.3932384000004,-3886.2044207999998,-185.79100799999998,-211.43865599999998,62.576687116564415,set #1
1970-01-01 00:00:20.067031373,3.7005977630615234,0.34074172377586365,1.017223834991455,11.193740609999999,-35.33861409,-482.28475425,-384.60962007,-1835.80707609,-6388.9800000000005,41.42637096,-81.14984358000001,62.88343558282209,set #1
1970-01-01 00:00:20.077505817,3.6960289478302,0.33983704447746277,1.0108469724655151,-114.20173674,-165.11498796,-1003.12743687,-716.14868988,321.11083875,2145.04214301,12.02658054,-133.65192906000001,63.190184049079754,set #1
1970-01-01 00:00:20.087334623,3.691539764404297,0.33947139978408813,1.0046027898788452,237.67106727,134.90003163,-485.30671488,39.022633649999996,1998.8662925400001,-3890.76825735,59.895564300000004,-202.215,63.49693251533743,set #1
1970-01-01 00:00:20.097046842,3.686932325363159,0.3386034071445465,0.9983518719673157,-168.0981978,-211.7258637,-762.1921834799999,-663.8122319400001,-243.23568048,-1269.1902327,-0.79313988,-145.5202749,63.80368098159509,set #1
1970-01-01 00:00:20.107110490,3.682368040084839,0.3377414643764496,0.9922382831573486,47.7537099,-98.0075382,-551.5329651000001,-454.7475621,-2886.2406456000003,4743.5474814,374.0634807,-26.8835151,64.11042944785277,set #1
1970-01-01 00:00:20.117329587,3.677826166152954,0.3368763029575348,0.9862318634986877,297.53625447,53.32031406,-111.55182948000001,134.57833233000002,562.4309363400001,2965.2498201300004,739.17904047,-100.45129926,64.41717791411043,set #1
1970-01-01 00:00:20.127282133,3.6732523441314697,0.3362152874469757,0.9804056882858276,35.7276699,-86.30997531,-343.76561271,-152.89972035,1183.78348101,2256.37238307,460.85165724,-131.58108717,64.7239263803681,set #1
1970-01-01 00:00:20.137039175,3.668750524520874,0.3353554606437683,0.9745850563049316,13.303836,0.5049915,-447.84141675,-31.237790999999998,1630.4842904999998,4108.36133175,84.2850255,62.60304375,65.03067484662577,set #1
1970-01-01 00:00:20.147222509,3.6641793251037598,0.3344097435474396,0.9689250588417053,83.75818854,93.26627622,-300.69070200000004,-35.569825200000004,1803.97922406,2989.7292321,77.16503496,1.51510086,65.33742331288343,set #1
1970-01-01 00:00:20.157329072,3.659519910812378,0.3336533308029175,0.9633925557136536,-174.38889936,-184.70635872,-262.457988,-125.3661552,543.52353744,3012.65767296,68.33014656,31.0459968,65.6441717791411,set #1
1970-01-01 00:00:20.167435636,3.654893636703491,0.3328465223312378,0.957953155040741,82.99041972,73.15959612,-185.04764304,-30.60182736,1591.20367848,2114.516274,94.89705108,-73.96867452000001,65.95092024539878,set #1
1970-01-01 00:00:20.177520503,3.650266408920288,0.33200061321258545,0.9526242017745972,-369.0746553,-451.67906511,-816.03245997,-616.9098468000001,1468.23858636,1975.44158253,-159.81822597,-265.38465876,66.25766871165644,set #1
1970-01-01 00:00:20.187315931,3.645658254623413,0.33116695284843445,0.9474693536758423,183.08000919,163.02607464,-315.64265148,223.44566205,1514.73020088,2064.00889188,-173.99413707000002,27.76703046,66.56441717791411,set #1
1970-01-01 00:00:20.197149028,3.641068696975708,0.3301491439342499,0.9423819184303284,304.33477152,188.01075072,-151.95385608,206.26660392,1340.39714172,1615.39347996,-125.34668172,85.89854676,66.87116564417178,set #1
1970-01-01 00:00:20.206976881,3.636512517929077,0.32914215326309204,0.9374046921730042,-16.66868619,-112.46442363,-446.73827796,2.1329447099999896,1576.1736892200001,1648.79926458,-205.72377228,-40.2454923,67.17791411042946,set #1
1970-01-01 00:00:20.217413654,3.6320180892944336,0.327951043844223,0.9324377179145813,178.90664532,240.42329064,-589.8108566999999,-407.98462770000003,1342.28992794,1182.6882826199999,-115.41028824,-96.26032025999999,67.48466257668711,set #1
1970-01-01 00:00:20.227227678,3.627568244934082,0.3267841935157776,0.927686333656311,91.19735976,150.12220704,11.362283399999999,207.18060792,1528.0739721,1163.5771952999999,131.88621732,129.67157268,67.79141104294479,set #1
1970-01-01 00:00:20.237202157,3.623197555541992,0.32543525099754333,0.9229956865310669,218.763246,385.27221525000004,9.728086289999993,194.83615281000002,1409.12262504,1105.6247631,212.95951365,131.2151412,68.09815950920246,set #1
1970-01-01 00:00:20.247242679,3.618886947631836,0.32407692074775696,0.9184098839759827,59.21582043000001,282.54538299,-251.91218559,-63.824425860000005,1223.75887998,798.28674861,100.11748656,-63.045272940000004,68.40490797546012,set #1
1970-01-01 00:00:20.257090559,3.614635705947876,0.32266226410865784,0.9139183163642883,-300.55962846,-142.68738666000002,-441.85871223000004,-267.19394208,1155.69586587,778.13003463,-221.38885392,-225.41021412,68.71165644171779,set #1
1970-01-01 00:00:20.267215003,3.6104419231414795,0.32115936279296875,0.9095629453659058,-268.21092636000003,-85.59152667000001,-284.54416380000004,-69.57042963,1235.12815881,657.83624088,-231.34245303,-140.39631762,69.01840490797547,set #1
1970-01-01 00:00:20.277206649,3.6063010692596436,0.319630891084671,0.9052751660346985,-233.48874393,-80.41831005,-492.49500651,-382.69195809,922.1954469,529.09754469,-455.95854563999995,-247.83888363,69.32515337423312,set #1
1970-01-01 00:00:20.287522544,3.6021568775177,0.318128377199173,0.9011724591255188,-50.579412000000005,87.39674112,-286.96308576,-194.28783504,738.397452,335.12365536000004,-259.02061536,-42.239015519999995,69.6319018404908,set #1
1970-01-01 00:00:20.297437419,3.5981290340423584,0.31664377450942993,0.8971344232559204,-226.16129562,45.74394591,-135.90322941,-129.7354383,604.9634724900001,475.48195617,-368.23802144999996,-19.35735126,69.93865030674847,set #1
1970-01-01 00:00:20.306988229,3.594104528427124,0.3151698112487793,0.8933009505271912,-222.45149277000002,231.85020066,-85.52236758000001,-93.53353932,529.67967897,196.48811403000002,-30.094895610000002,-11.645329019999998,70.24539877300613,set #1
1970-01-01 00:00:20.317069997,3.5902082920074463,0.31370002031326294,0.8895422220230103,-721.40620344,-140.09959587,-331.0320702,-300.76023042,496.275,74.22861927,-37.3235148,-134.48391177000002,70.5521472392638,set #1
1970-01-01 00:00:20.327159156,3.5862903594970703,0.3122223913669586,0.8858734965324402,-575.83555848,82.5371664,-99.7521252,-118.41828336,405.79946784,221.245206,355.45863756000006,-27.88555848,70.85889570552148,set #1
1970-01-01 00:00:20.337700834,3.582488775253296,0.3107793629169464,0.882270336151123,-813.85655364,-249.16745334,-402.29381322,-415.57684428,668.2373529,-15.621823619999999,224.60191337999998,-200.17502778000002,71.16564417177915,set #1
1970-01-01 00:00:20.347153415,3.578803300857544,0.30934950709342957,0.8788114786148071,-207.89841735,79.16344215,-180.9244164,-135.64008900000002,549.5765925000001,88.00025715000001,-9.32243325,-153.58664685000002,71.47239263803681,set #1
1970-01-01 00:00:20.357414951,3.575242280960083,0.3079322576522827,0.8754862546920776,-389.5698534,-78.94794921,-456.54738324,-396.67225026,670.7273508000001,151.59271569,-319.91556597000005,-301.08401466,71.77914110429448,set #1
1970-01-01 00:00:20.367047300,3.571784734725952,0.30660393834114075,0.872262716293335,-70.550571,47.880144,-311.232753,-194.398776,614.19696,149.494137,-261.67947,-158.24523000000002,72.08588957055215,set #1
1970-01-01 00:00:20.377297391,3.5684447288513184,0.30538004636764526,0.8691411018371582,173.36620625999998,229.18096305,-115.28975679000001,14.30860899,559.1874221700001,58.962898800000005,-398.59152723,-154.32672177,72.39263803680981,set #1
1970-01-01 00:00:20.387423982,3.5652003288269043,0.3042306900024414,0.8661987781524658,115.867947,39.66723774,-234.78211457999998,-153.34641192,442.5873543,-61.00782714,-597.2708742000001,-186.10605234,72.69938650306749,set #1
1970-01-01 00:00:20.397011270,3.561988592147827,0.3031250238418579,0.8633708357810974,70.6175535,-1.9504251000000001,-238.8837906,-158.91460260000002,410.18287829999997,-136.40448510000002,-766.3703697,-178.927671,73.00613496932516,set #1
1970-01-01 00:00:20.406796922,3.5588650703430176,0.302044540643692,0.8606156706809998,72.63662016,78.31738824,-164.28120462,-143.01361386000002,578.07720672,-85.45684367999999,-647.0695709400001,-96.8369727,73.31288343558282,set #1
1970-01-01 00:00:20.417211999,3.555842161178589,0.30104202032089233,0.8580115437507629,-62.326708860000004,-48.98245638,-103.79928156,-200.84533014000002,278.382039,13.247514540000001,-511.76430123,-186.8022819,73.61963190184049,set #1
1970-01-01 00:00:20.427401533,3.5528407096862793,0.30005544424057007,0.8555551767349243,-328.14498678,-355.43509989,-160.76623173000002,-373.61747006999997,181.3582758,-134.02869519,-672.6607789200001,-162.91721043,73.92638036809817,set #1
1970-01-01 00:00:20.437170495,3.5499026775360107,0.29902976751327515,0.8531925678253174,64.0220139,133.31420115,33.797013899999996,-101.7810417,-261.2048634,-117.93538185000001,-294.92232705000004,-113.82107685,74.23312883435582,set #1
1970-01-01 00:00:20.447697391,3.546898603439331,0.2979751229286194,0.8509619832038879,-47.75498442,18.313733489999997,84.57336771,-52.2905253,128.47889301,-226.6188522,-60.0498249,-51.2646498,74.5398773006135,set #1
1970-01-01 00:00:20.457042922,3.543914318084717,0.297025203704834,0.8488054275512695,-56.518291440000006,26.69150016,6.9354168000000005,-42.22043748,118.16002068,-386.2967706,10.897948620000001,-84.22503102,74.84662576687117,set #1
1970-01-01 00:00:20.467407932,3.5408811569213867,0.29612278938293457,0.8467626571655273,-224.20635900000002,-74.14143048,-96.92604792,-79.26832836,-207.02923332,-259.6284132,117.30713904,59.42970228,75.15337423312883,set #1
1970-01-01 00:00:20.477689733,3.5378165245056152,0.29525911808013916,0.8448560833930969,-288.56435985,-92.10006195,-153.65391327,-83.25106608,-410.23035104999997,-247.3384719,340.25930562,-42.534421800000004,75.4601226993865,set #1
1970-01-01 00:00:20.487409343,3.5348002910614014,0.2944124639034271,0.8430483341217041,-482.02161501,-227.74793769000001,-303.33739137,-167.08812939,22.078509569999994,-337.46147604000004,422.22657828,-114.9663099,75.76687116564418,set #1
1970-01-01 00:00:20.497295608,3.531773090362549,0.29369494318962097,0.8413509130477905,13.893088559999999,220.17937655999998,-218.00406888,36.44523792,-3.1687406399999993,-141.89609928000002,589.89082464,-26.212998240000005,76.07361963190183,set #1
1970-01-01 00:00:20.507031192,3.52874755859375,0.2930074632167816,0.83974289894104,-302.68576415999996,-440.14389431999996,-421.53880704,-179.89876008000002,17.57650128,-140.08117968,218.73713784,-153.53219856,76.38036809815951,set #1
1970-01-01 00:00:20.517031183,3.5257859230041504,0.29225313663482666,0.8382421731948853,271.82661831,-42.2060028,-214.57045974000002,55.13886299999999,-111.35757945,-25.495518360000002,-31.63321044,-35.39985345,76.68711656441718,set #1
1970-01-01 00:00:20.527104606,3.5228230953216553,0.29154694080352783,0.8368002772331238,586.695915,342.74528808,-152.29911216,153.9691647,-182.56501536000002,-11.084700119999999,-34.95218064,-53.5774941,76.99386503067485,set #1
1970-01-01 00:00:20.537741413,3.519850969314575,0.2908022403717041,0.8352912664413452,93.38125679999999,-179.46507345,-282.60150399,21.9620856,230.29211244,-98.21225934,-85.49075535,-200.60027403,77.30061349693251,set #1
1970-01-01 00:00:20.547408094,3.516834259033203,0.2899380326271057,0.8338985443115234,137.5656282,52.99316099999997,-119.18685012,177.1730298,163.69338726,-104.81662385999999,56.191465980000004,-72.19154436000001,77.60736196319019,set #1
1970-01-01 00:00:20.557666769,3.5138258934020996,0.28892841935157776,0.8324365615844727,53.03389377,-94.19601516,-249.41002866000002,64.40725746000001,-251.45344458,-2.5207521300000018,31.91412198,-132.34235469,77.91411042944786,set #1
1970-01-01 00:00:20.567316761,3.5108230113983154,0.2878792881965637,0.831088125705719,144.17530958999998,36.59678958,-99.21127905,229.48116242999998,-353.6491803,-62.63545977,25.47847848,-98.11163856000002,78.22085889570552,set #1
1970-01-01 00:00:20.577503194,3.507786750793457,0.2868231534957886,0.829668402671814,174.43282116,23.90029512,-81.45202259999999,270.09934458,436.89285588,-114.68434458,-149.06901048,-7.347717,78.52760736196319,set #1
1970-01-01 00:00:20.587407579,3.5046215057373047,0.28575393557548523,0.8282764554023743,-41.40305403000001,-125.77893783,-226.03488219,205.63132239,924.89723079,-124.14610805999999,-456.46395911999997,-131.46094767,78.83435582822086,set #1
1970-01-01 00:00:20.597145547,3.501488447189331,0.2846025824546814,0.8268762230873108,13.81364361,-51.67966323,-106.25961645,410.46963984,541.46231061,220.32191298,-458.15384004,-60.395916750000005,79.14110429447852,set #1
1970-01-01 00:00:20.607210149,3.4983174800872803,0.2834561765193939,0.8255261182785034,43.14565515,53.664361920000005,-69.45689478,532.01367024,333.56326107,115.11764979,-228.41867997,-60.14776911,79.4478527607362,set #1
1970-01-01 00:00:20.617509355,3.495222330093384,0.282347708940506,0.8242284655570984,1.0135008,35.951336850000004,-88.89772515,675.8375481,33.8238108,-36.936898049999996,-314.91770310000004,-35.33311665,79.75460122699387,set #1
1970-01-01 00:00:20.627305974,3.4921762943267822,0.2812744081020355,0.8229504823684692,-190.66917714,-176.6816493,-222.02061804000002,556.20695832,124.73487233999998,-66.50898305999999,-484.08309378,-176.25660078,80.06134969325153,set #1
1970-01-01 00:00:20.637239208,3.489177703857422,0.28018978238105774,0.8217295408248901,-94.01873208,-68.09848032000001,-86.00689656,510.39437592,540.43272504,-205.9775328,-260.51297376,-146.25417456,80.3680981595092,set #1
1970-01-01 00:00:20.647104730,3.4862382411956787,0.27910515666007996,0.8205122947692871,-162.5272194,-79.30438620000001,-157.2595908,143.9086779,542.7785415,-323.53399260000003,-227.30016270000002,-195.2279277,80.67484662576688,set #1
1970-01-01 00:00:20.657321205,3.4833545684814453,0.2780919373035431,0.8193182945251465,-106.2997182,-60.74066895,-126.7759389,129.8156808,157.26170265000002,-418.1663616,18.4349763,-123.5720187,80.98159509202455,set #1
1970-01-01 00:00:20.667215814,3.4805896282196045,0.27711424231529236,0.8181639313697815,-17.14421982,-49.09755474,-76.62919602000001,70.74745002,-94.47922458000001,-596.41666032,235.76823972,-128.79577541999998,81.28834355828221,set #1
1970-01-01 00:00:20.677633752,3.4778919219970703,0.2761828303337097,0.8170568346977234,-32.13789696,-12.31371336,-61.64381496,44.73691872,-117.42991728,-852.79310376,315.31463496,-121.37718216,81.59509202453988,set #1
1970-01-01 00:00:20.687384119,3.475332021713257,0.27529674768447876,0.816017210483551,-62.17567434,16.30635513,-33.701515380000004,21.34790385,-197.55677565,-883.6922897400001,306.27551409,-19.96036029,81.90184049079755,set #1
1970-01-01 00:00:20.697159996,3.4728713035583496,0.27448463439941406,0.8150366544723511,-130.0260546,-5.36642184,-94.16950763999999,-24.242554440000003,-364.93865616,-892.66328892,303.43549236,-22.425117,82.20858895705521,set #1
1970-01-01 00:00:20.707370271,3.470465660095215,0.2737807333469391,0.8141289353370667,-83.75828136,21.57332034,-71.67251949,-8.73916017,-351.62821707,-882.46567227,228.86250582,-28.443682799999998,82.51533742331289,set #1
1970-01-01 00:00:20.717034330,3.4681925773620605,0.27316319942474365,0.8133124709129333,-155.9488203,-18.8998836,-116.2986045,-71.2134384,-472.3912791,-838.1385051,108.626661,-22.0809966,82.82208588957056,set #1
1970-01-01 00:00:20.727438201,3.4659981727600098,0.2726098299026489,0.8125478029251099,-99.52230483,83.58050805,-37.72047084,31.75214991,-568.45124544,-679.78312272,105.08745975,73.22578068,83.12883435582822,set #1
1970-01-01 00:00:20.737378349,3.463832378387451,0.27240490913391113,0.8117308020591736,-17.961745620000002,136.91047383,39.85794267,62.29946385,-735.95301741,-459.89966334,173.84426436,167.33569827,83.43558282208589,set #1
1970-01-01 00:00:20.747280349,3.461801290512085,0.27221545577049255,0.8109604120254517,-145.65035276999998,9.58769721,-82.38246939,-90.22759434,-858.5909163,-197.80427238,59.32838067,7.9667417700000005,83.74233128834356,set #1
1970-01-01 00:00:20.757464160,3.459845781326294,0.2720210552215576,0.8102678060531616,-100.616568,93.9095664,4.5374783999999995,-14.7947904,-941.7961488,118.5398448,99.7121424,96.92417280000001,84.04907975460122,set #1
1970-01-01 00:00:20.767456283,3.4579591751098633,0.27187490463256836,0.8096197843551636,-19.76105703,204.23534001000002,30.780183720000004,-26.59565259,-894.2988689700001,628.2547888500001,155.12943927,130.56261035999998,84.3558282208589,set #1
1970-01-01 00:00:20.777407875,3.45617413520813,0.2716931402683258,0.8090471029281616,20.66390625,169.67057250000002,65.45335874999999,20.3208525,6.095651250000003,694.53583875,17.985191250000003,107.27261999999999,84.66257668711657,set #1
1970-01-01 00:00:20.787461748,3.4544382095336914,0.27144479751586914,0.808483362197876,-33.94496352,295.91176524,-75.48633768,-65.75767536000001,1168.38609108,630.7342017599999,-150.13720644,-0.8439225600000011,84.96932515337423,set #1
1970-01-01 00:00:20.797147264,3.4527645111083984,0.2710331082344055,0.8079712986946106,11.30749152,230.99235744,-19.94858112,-64.46873472,513.86220288,542.5189910400001,-70.28672352,88.7706144,85.2760736196319,set #1
1970-01-01 00:00:20.807228555,3.4510951042175293,0.2705109715461731,0.8074519038200378,-21.755691749999997,42.7107252,9.04813455,-37.8691794,-767.0712972,476.6922615,-37.95259065,-2.7914074500000003,85.58282208588957,set #1
1970-01-01 00:00:20.817351331,3.4494221210479736,0.2699664831161499,0.8069633841514587,-138.29192364,57.97356825,-64.17546993,-37.71345084000001,494.41069743,-55.17403086,-130.13306904,-47.76951543,85.88957055214723,set #1
1970-01-01 00:00:20.827483644,3.447730779647827,0.2693774998188019,0.8064733743667603,-10.05707508,186.91933103999997,17.7696246,50.72551536,-1.708638360000002,-240.16070988,-43.259887320000004,15.140795279999999,86.1963190184049,set #1
1970-01-01 00:00:20.837228288,3.445988893508911,0.2687568962574005,0.8060129284858704,40.45838784,199.94661023999998,79.89581184000001,96.82983648,-417.62128512000004,-492.94790688000006,-8.68499424,43.35871488,86.50306748466258,set #1
1970-01-01 00:00:20.847599496,3.4441967010498047,0.2677842676639557,0.8058026432991028,23.51935872,222.07012776,99.53252087999999,109.3979484,-512.09897544,-549.7875208800001,23.72123832,71.27324568,86.80981595092025,set #1
1970-01-01 00:00:20.857283821,3.442364454269409,0.26704880595207214,0.8054754734039307,-108.51055254,44.29030632,-21.54572121,-28.63969368,-166.06032183,-880.97845095,-118.30814463,-65.60947848,87.11656441717791,set #1
1970-01-01 00:00:20.867110004,3.4404871463775635,0.26638200879096985,0.8051025867462158,-20.85334212,163.10961108,74.06502636,59.65834212,-199.62932652,-894.5508811200001,-11.52054384,19.8121248,87.42331288343559,set #1
1970-01-01 00:00:20.877581825,3.438596725463867,0.2658493220806122,0.8045439720153809,-76.0817655,90.458823,25.878528,-5.7611775000000005,-423.59308875,-1045.072353,-127.15720875,-51.766767,87.73006134969326,set #1
1970-01-01 00:00:20.887183179,3.4366724491119385,0.26525965332984924,0.8039888739585876,-50.97630993,141.80363886,111.19447677000001,26.30206917,-14.96871753,-1185.37623126,23.913981,19.56782841,88.03680981595092,set #1
1970-01-01 00:00:20.897346248,3.4347496032714844,0.2645406126976013,0.8036341667175293,28.2116952,215.33518967999998,119.81588735999999,38.67934512,-558.50608944,-1182.01874544,113.78408808,35.6339412,88.34355828220859,set #1
1970-01-01 00:00:20.906904211,3.43289852142334,0.2639853358268738,0.8030211329460144,26.75605725,120.66682992,54.860691599999996,-30.07268199,-370.59203844,-1304.28642123,119.68443083999999,24.83971542,88.65030674846626,set #1
1970-01-01 00:00:20.917285432,3.4310882091522217,0.2634110748767853,0.8024267554283142,-4.7536632,127.09551504000001,7.885222799999999,-54.533937120000004,-493.00073784,-1341.59691744,109.54926216000001,-66.39909432,88.95705521472392,set #1
1970-01-01 00:00:20.930204143,3.429384469985962,0.2626422345638275,0.8020660877227783,-82.5011577,149.88346307999998,-8.46116271,-110.87193117,-669.3380538,-1392.01730538,142.23461577,29.64925158,89.2638036809816,set #1
1970-01-01 00:00:20.937061300,3.42775821685791,0.26195985078811646,0.8015944957733154,-65.18760300000001,165.142536,45.042699,-68.33151,-482.964027,-1399.7742329999999,201.033768,112.220628,89.57055214723927,set #1
1970-01-01 00:00:20.947198143,3.426211357116699,0.26133862137794495,0.801091194152832,-72.57559569,158.2820616,26.141479259999997,-84.2472423,-440.30529465,-1417.7809772100002,191.72182731,114.04965195,89.87730061349693,set #1
1970-01-01 00:00:20.957221021,3.4247283935546875,0.2607840895652771,0.8005890250205994,-28.360026240000003,203.89492851,45.33732489,-87.49023348,-981.12838278,-1463.9044687800001,147.81960453,144.75055023,90.1840490797546,set #1
1970-01-01 00:00:20.967324724,3.4233386516571045,0.26035383343696594,0.8000307083129883,-7.3596354,231.04908684,98.16127776,-62.47051044,-1068.71811072,-1422.9696702,141.85135068,195.41806596,90.49079754601227,set #1
1970-01-01 00:00:20.977207889,3.4219858646392822,0.25992417335510254,0.7994738221168518,-50.49876156,208.94977817999998,87.6165342,-50.83429299,-1143.2429853,-1456.43961645,40.56207948,64.21029576000001,90.79754601226995,set #1
1970-01-01 00:00:20.986941089,3.420680046081543,0.2594887316226959,0.7989688515663147,-81.81987645,229.75595058000002,69.89128341000001,-47.39561775,-927.7968835199999,-1412.7043343399998,84.44967726,115.04112204,91.1042944785276,set #1
1970-01-01 00:00:20.996916761,3.419428825378418,0.2591697871685028,0.7984728813171387,-112.94276097,177.44470224,51.53962865999999,-64.90805529000001,-906.9494148,-1315.50246321,124.43716545000001,178.32231261,91.41104294478528,set #1
1970-01-01 00:00:21.007224073,3.418210029602051,0.25887760519981384,0.7979897856712341,-158.70977694,122.48745366,-20.91917295,-159.83933082000001,-844.90974945,-1264.54754634,91.68897738,119.36598492,91.71779141104295,set #1
1970-01-01 00:00:21.017107238,3.4170496463775635,0.2586109936237335,0.7975045442581177,-159.21516234,135.22072356,-21.97906308,-154.50693414,-740.0192857200001,-1210.3911502800001,11.76901206,88.22208719999999,92.02453987730061,set #1
1970-01-01 00:00:21.027070751,3.415940523147583,0.2583847939968109,0.7970097661018372,-117.75610665,214.62501605999998,61.28333601,-83.19701949,-439.82242317000004,-1168.48239105,-88.75259289,73.05501606,92.33128834355828,set #1
1970-01-01 00:00:21.037047853,3.4148855209350586,0.25809246301651,0.7964969277381897,-106.17522942,216.63087849000001,66.53878257,-51.55394166,-360.14633733,-1168.12848282,-219.6034932,24.576457230000003,92.63803680981596,set #1
1970-01-01 00:00:21.047151794,3.4138858318328857,0.25774526596069336,0.7959875464439392,137.69439762000002,410.61061938,148.74320136000003,108.16920816,-114.5869881,-1107.03939762,-85.18037892,137.18922516,92.94478527607362,set #1
1970-01-01 00:00:21.057435264,3.4129743576049805,0.25739169120788574,0.795451283454895,-43.67900160000001,296.10501024,39.0471744,-43.17837888,-199.20894239999998,-1191.01116576,-157.70350752000002,-17.69350752,93.25153374233129,set #1
1970-01-01 00:00:21.067105998,3.4121201038360596,0.25705352425575256,0.7948930859565735,19.50625092,213.09446652,137.11464312,19.72928256,-126.78508830000001,-1218.1182156,34.14758646000001,91.86214128,93.55828220858896,set #1
1970-01-01 00:00:21.078134765,3.4112789630889893,0.25676190853118896,0.7943287491798401,-43.6967505,-15.986176050000001,24.6735996,-66.43558349999999,-362.25744165000003,-1332.2666428500002,-74.7809517,-12.246885299999999,93.86503067484662,set #1
1970-01-01 00:00:21.086980094,3.4104762077331543,0.25649014115333557,0.7937856912612915,49.06921344,-5.315246039999998,45.01394664,-21.69249654,-428.80634784,-1373.1374896200002,-92.99445947999999,50.1122505,94.1717791411043,set #1
1970-01-01 00:00:21.097122659,3.4097344875335693,0.2562969923019409,0.7932549118995667,110.0530392,-36.61910538,61.958511030000004,-19.860422789999998,71.09537994,-1375.66255515,-103.30946691,5.15507967,94.47852760736197,set #1
1970-01-01 00:00:21.107129325,3.4090492725372314,0.25615787506103516,0.7926773428916931,46.21820775,-39.17155125,38.206506,-44.567289,-164.277048,-1452.47082825,-129.876084,-79.99977375,94.78527607361963,set #1
1970-01-01 00:00:21.117131938,3.40840220451355,0.2560303807258606,0.7920979261398315,80.40246006000001,-0.18399576000000017,63.6026508,13.75575318,66.44106456,-1497.14487936,-70.96083306,-23.05861428,95.0920245398773,set #1
1970-01-01 00:00:21.127306690,3.407789468765259,0.25588029623031616,0.7915501594543457,-44.7927363,-88.9018728,10.4647725,-27.0346908,-21.0295098,-1663.0723278,-70.5168087,-59.212572900000005,95.39877300613497,set #1
1970-01-01 00:00:21.137180557,3.4070844650268555,0.2558121085166931,0.7910133600234985,-12.55584798,-65.38998648,40.94458953,0.4333446000000004,-181.95676355999998,-1757.71374831,17.91833784,-34.39586826,95.70552147239263,set #1
1970-01-01 00:00:21.147231807,3.406322479248047,0.25562745332717896,0.790351927280426,-48.34947702,-61.02288309,54.65835609,0.3863324399999999,-164.18633244,-1804.09583445,75.50916555,-27.35150067,96.0122699386503,set #1
1970-01-01 00:00:21.157107343,3.4056479930877686,0.25543028116226196,0.7897312641143799,34.02586083,-8.7518262,69.88050147,-4.46740281,-282.86017968000004,-1822.63526952,84.76991016000001,5.32555374,96.31901840490798,set #1
1970-01-01 00:00:21.167710533,3.405050039291382,0.25531384348869324,0.7892503142356873,105.40289487,28.53181617,144.86460924,73.73073747,-325.73225646000003,-1809.06622455,118.90926801,51.91117776,96.62576687116565,set #1
1970-01-01 00:00:21.177297344,3.4044461250305176,0.25525736808776855,0.7888093590736389,-53.67813984,-43.91710752,62.25363456,-1.70636544,-195.9905376,-1755.8635411199998,118.18823328,-28.164215040000002,96.93251533742331,set #1
1970-01-01 00:00:21.187303533,3.403827667236328,0.25527799129486084,0.7883433103561401,37.343549100000004,58.84177455,123.40139253,83.98946556,-128.12835905999998,-1665.0348475800001,100.67763264,-1.0848099599999994,97.23926380368098,set #1
1970-01-01 00:00:21.196885814,3.403210163116455,0.25536268949508667,0.787902295589447,41.16459204,-41.616627,52.63784604,17.617479359999997,-121.7008572,-1626.5658341399999,26.29398252,-35.9339643,97.54601226993866,set #1
1970-01-01 00:00:21.207219829,3.4026474952697754,0.25550878047943115,0.7875873446464539,30.18126774,-38.15613282,93.69079902,41.62913352,-54.27886893,-1648.39886718,-5.115335549999999,-66.06293499,97.85276073619632,set #1
1970-01-01 00:00:21.217416515,3.402104377746582,0.2557094097137451,0.7873440384864807,0.9113012999999999,-71.85767745,68.86862385,13.682559150000001,-59.07932160000001,-1643.62137615,-55.539246750000004,-86.15247225,98.15950920245399,set #1
1970-01-01 00:00:21.227205982,3.40153431892395,0.2559414803981781,0.7870945930480957,38.42600424,-60.93265854,102.1566702,31.86599364,-29.439281039999997,-1594.32902226,-31.1766702,-24.32767974,98.46625766871166,set #1
1970-01-01 00:00:21.237289657,3.4010097980499268,0.2561781406402588,0.7868652939796448,37.47229083,-45.869309460000004,99.22417089000001,5.322893159999998,-176.0916885,-1519.8838180500002,40.5936492,84.63407511,98.77300613496932,set #1
1970-01-01 00:00:21.247449150,3.400585889816284,0.25637590885162354,0.7867146134376526,167.10505500000002,75.6599415,130.527696,-19.344604500000003,-142.8196185,-1433.2037655,-14.1459045,-17.2460145,99.079754601227,set #1
1970-01-01 00:00:21.257052888,3.400207757949829,0.2565366327762604,0.7865933179855347,29.57445816,-30.56058408,75.01882128,-90.75370511999999,-108.70496832,-1305.89993664,-6.07308936,-9.23624208,99.38650306748467,set #1
1970-01-01 00:00:21.267238130,3.399993896484375,0.2566435933113098,0.786468505859375,40.590622800000006,5.927200499999998,179.2628292,40.3395018,-20.6509134,-1200.1601898,57.025605,61.398363,99.69325153374233,set #1
1970-01-01 00:00:21.277469625,3.400024652481079,0.2567550539970398,0.7864392995834351,-165.0738375,-204.00183375,42.86085375,-66.3455325,-7.150211249999998,-1170.1476149999999,-121.96513875000001,-133.1375175,100.0,set #1
1970-01-01 00:00:21.277469625,3.400024652481079,0.2567550539970398,0.7864392995834351,-165.0738375,-204.00183375,42.86085375,-66.3455325,-7.150211249999998,-1170.1476149999999,-121.96513875000001,-133.1375175,0.0,set #2
1970-01-01 00:00:21.287167539,3.4002108573913574,0.25685545802116394,0.7865427136421204,-119.79125769,-209.15332971,50.66629932,-51.37995837,146.87276331,-1122.41387622,-67.31892687000001,-60.35916393000001,0.30120481927710846,set #2
1970-01-01 00:00:21.297107686,3.4004337787628174,0.2569471001625061,0.7867038249969482,77.50837146,52.0355043,49.686287820000004,-73.5896187,122.39459778,-1087.07082042,-58.10358918,-43.83861378,0.6024096385542169,set #2
1970-01-01 00:00:21.307126035,3.4007339477539062,0.2570108473300934,0.7868413925170898,93.4225773,90.83196525000001,118.95071564999999,-18.193125600000002,-136.16076825,-1105.1471613,-110.4860679,-144.15415365,0.9036144578313254,set #2
1970-01-01 00:00:21.316945543,3.4012181758880615,0.25708529353141785,0.7870389819145203,-37.15821096,-66.91407255,60.086930280000004,-71.04383715,47.050819139999994,-1060.5587288400002,-82.40782017000001,32.275254180000005,1.2048192771084338,set #2
1970-01-01 00:00:21.327270498,3.4018399715423584,0.2572256624698639,0.7873825430870056,0.5016242399999999,-8.1518931,120.87116184,-40.50590466,86.11618782000001,-1062.12659826,-122.26171386,-6.236566440000001,1.5060240963855422,set #2
1970-01-01 00:00:21.337018003,3.402493476867676,0.25744250416755676,0.7877869009971619,-72.41137605,-111.8677521,30.33958161,-196.12881561,-42.98077602,-1038.57926406,-331.73488413,-113.61543843,1.8072289156626509,set #2
1970-01-01 00:00:21.347135534,3.4031615257263184,0.2577248811721802,0.788156270980835,-151.00148778000002,-186.4923216,-155.9257869,-353.10229032,87.13955718,-948.54792864,-360.13077126,-177.21365298,2.108433734939759,set #2
1970-01-01 00:00:21.357100238,3.403920888900757,0.2580803632736206,0.7885517477989197,18.76698252,-89.04052716000001,-142.37238522,-305.59388262000004,196.7424693,-818.4931856400001,-22.05831342,-57.94202622,2.4096385542168677,set #2
1970-01-01 00:00:21.367351999,3.404794692993164,0.25852566957473755,0.7890533804893494,333.99892344,265.69125180000003,257.46077058000003,32.82701721,-182.49041382000001,-824.5707923699999,231.17939948999998,97.34078406,2.7108433734939763,set #2
1970-01-01 00:00:21.377150287,3.405625343322754,0.25890398025512695,0.7894991636276245,227.29558175999998,247.10668632,323.92898733,78.01818102,-67.47,-818.68665684,243.87519507,123.43388069999999,3.0120481927710845,set #2
1970-01-01 00:00:21.387378683,3.406547784805298,0.2593885362148285,0.7899348139762878,-134.52836787,-139.80350904000002,148.65015438,-59.28979485000001,-182.2675452,-819.9652051500001,-11.18564187,10.139653679999999,3.313253012048193,set #2
1970-01-01 00:00:21.397205581,3.4076297283172607,0.2599901258945465,0.7904033660888672,-74.56171515,-98.75659404000001,7.874864009999996,-216.25542353999998,-304.19800203000005,-806.7418667100001,-208.60599864,-15.438284160000002,3.6144578313253017,set #2
1970-01-01 00:00:21.407019367,3.408926486968994,0.26066693663597107,0.7909784913063049,210.49913547,102.39701316,353.05509759,116.88264783,-431.99785746000003,-728.5144744800001,38.62998555,229.75605392999998,3.91566265060241,set #2
1970-01-01 00:00:21.417381038,3.4104766845703125,0.26136866211891174,0.7916320562362671,78.04057638,-71.99569104000001,17.1942654,-153.8106141,157.27090158,-668.3173083600001,-178.37540214,120.22020036,4.216867469879518,set #2
1970-01-01 00:00:21.427369585,3.41214919090271,0.2621663212776184,0.7922662496566772,-2.9834219999999974,-113.98101390000001,67.90347915000001,-153.14978445,-377.0384982,-724.05207225,-76.54136880000001,156.4663815,4.518072289156627,set #2
1970-01-01 00:00:21.437270631,3.4140055179595947,0.26309409737586975,0.7929525971412659,59.63450415,-49.44716907,-62.161452600000004,-243.86216907,-145.50738969,-735.4415530800001,44.37054609,167.2295391,4.819277108433735,set #2
1970-01-01 00:00:21.447265377,3.416067123413086,0.26408353447914124,0.7937474846839905,132.47386932,69.41516439,73.29639798,-213.50604366,-268.05651678,-830.9656098900001,-8.95181586,257.4448812,5.120481927710844,set #2
1970-01-01 00:00:21.457040538,3.4183459281921387,0.26518431305885315,0.794669508934021,-35.90087202,-100.75157742,24.75971784,-237.82623306,-356.54440458,-830.76852144,-81.57323928000001,262.07475450000004,5.421686746987953,set #2
1970-01-01 00:00:21.467107048,3.4207639694213867,0.26654958724975586,0.7956879734992981,250.52855255999998,185.53909607999998,150.28871208,-105.95813904,-434.00490744,-707.82147696,-61.882441920000005,380.64024023999997,5.72289156626506,set #2
1970-01-01 00:00:21.477540245,3.423248291015625,0.2681296765804291,0.7967379689216614,216.80007959999998,151.5892131,-105.6197142,-402.12668145,-230.08327875,-560.46668145,-107.43186870000001,254.8689273,6.024096385542169,set #2
1970-01-01 00:00:21.487130870,3.425891637802124,0.26988208293914795,0.7979757785797119,62.33845410000001,-104.1495195,185.0797728,-54.5476113,-217.2184326,-420.47118359999996,-26.9457123,153.6400476,6.325301204819278,set #2
1970-01-01 00:00:21.497139444,3.428131103515625,0.2719973921775818,0.7984622716903687,221.00904072,12.57572472,289.18687044,-6.595603560000001,-424.90482684,-154.45084200000002,39.12520248,239.7048108,6.626506024096386,set #2
1970-01-01 00:00:21.507225980,3.4310052394866943,0.2740480303764343,0.8000518679618835,221.844051,140.9150028,335.557677,139.3071888,-421.86893580000003,103.71781680000001,364.1865552,283.35658259999997,6.927710843373495,set #2
1970-01-01 00:00:21.517037382,3.4334540367126465,0.27666163444519043,0.8009077906608582,6.6373140600000005,-247.12689924,-188.10394589999999,-534.06668718,-287.35347264,315.91457898000004,-240.2381592,69.44726802000001,7.2289156626506035,set #2
1970-01-01 00:00:21.527430524,3.436608076095581,0.27894020080566406,0.8028353452682495,433.82836848,342.54616032,186.85753164,-198.36207456,-463.83481716,684.5401758,-199.65379044,222.92764416,7.530120481927711,set #2
1970-01-01 00:00:21.537046661,3.439409017562866,0.2816711366176605,0.8042005300521851,309.04595358,234.05159115,245.03419668,-90.69837348,-369.06738453,924.21402099,-186.04836354,139.76808729,7.83132530120482,set #2
1970-01-01 00:00:21.547302951,3.442518949508667,0.2841843068599701,0.8058604001998901,68.82961488,-66.57658293,383.4952953,44.501671110000004,-505.97116869,1140.76624272,141.36757362,103.49933373,8.132530120481928,set #2
1970-01-01 00:00:21.556993951,3.4461495876312256,0.28629350662231445,0.8082224726676941,329.49182838,273.0471822,354.6814089,45.08038665,-596.12133048,1271.31115995,281.43298833,235.68813878999998,8.433734939759036,set #2
1970-01-01 00:00:21.566696395,3.449420928955078,0.28885671496391296,0.8101769089698792,138.53955375,83.4455739,-23.04624855,-358.663071,-519.93583395,1424.29852305,181.54873035,186.75932534999998,8.734939759036145,set #2
1970-01-01 00:00:21.577526559,3.4533238410949707,0.29071706533432007,0.8128775954246521,-402.19763960999995,-529.22728755,-183.83093430000002,-519.8578214700001,-193.84665650999997,1436.5005946200001,-64.57021233,5.37669912,9.036144578313253,set #2
1970-01-01 00:00:21.587209930,3.4569129943847656,0.29317131638526917,0.8152592778205872,349.74604469999997,272.3357871,319.6823838,-5.7148493999999985,-2521.5432411,807.4061892,-69.1322775,39.4083222,9.337349397590362,set #2
1970-01-01 00:00:21.597039451,3.4611027240753174,0.29515424370765686,0.8182576298713684,237.24880217999998,188.93829552,129.80044038,-122.31782901000001,-1047.36408387,1632.2112073800001,-131.25739341,-109.87597061999999,9.63855421686747,set #2
1970-01-01 00:00:21.607068767,3.4649910926818848,0.29768598079681396,0.8210493326187134,803.96675502,572.80297074,858.18838794,591.10986441,-487.04529510000003,1778.3627323800001,296.92474968,155.32290969000002,9.93975903614458,set #2
1970-01-01 00:00:21.616999855,3.469099760055542,0.2998400628566742,0.8240203857421875,63.551112299999986,-238.70539095,-135.35030145000002,-492.5978226,-331.5626574,1396.19519325,-311.05095645000006,-502.73346825,10.240963855421688,set #2
1970-01-01 00:00:21.627133359,3.4735941886901855,0.30185365676879883,0.8275609612464905,-2.75653053,-306.26285586,-367.51968669,-696.40674675,28.402697700000004,1864.04592192,-394.92415716,-592.14634635,10.542168674698797,set #2
1970-01-01 00:00:21.636858930,3.4777443408966064,0.30448079109191895,0.8309032917022705,-262.5557961,-449.4736506,-476.7617127,-798.76173,-84.42000060000001,2125.291194,-170.0364705,-324.12954990000003,10.843373493975905,set #2
1970-01-01 00:00:21.647123327,3.4822425842285156,0.30681952834129333,0.834465742111206,-146.54082456,-506.29643570999997,-154.21517163000001,-512.22137304,164.25786507,1846.6503705,-243.41629767,-389.86017798,11.144578313253014,set #2
1970-01-01 00:00:21.657068004,3.4870495796203613,0.3085572421550751,0.8383684754371643,27.26585004,145.59955644000001,34.06186212,-437.04268608,339.03212304,1835.53194864,-0.8885525999999988,-132.14835348000003,11.44578313253012,set #2
1970-01-01 00:00:21.667675485,3.4919798374176025,0.3103192448616028,0.8424237370491028,244.87288215,187.66462845,345.9853683,-68.05569030000001,233.07108435,1739.8508731499999,198.7933857,78.77174565,11.74698795180723,set #2
1970-01-01 00:00:21.677545537,3.4970755577087402,0.31200456619262695,0.8465042114257812,-36.98426823,-49.03627326,505.15408047,131.23004778,-57.38893797,1689.6352363800002,189.86717099999998,35.3888223,12.048192771084338,set #2
1970-01-01 00:00:21.687474479,3.5023367404937744,0.31371456384658813,0.8507651090621948,385.61546985000007,318.04593795,390.06672159000004,48.585972630000015,305.51375868,1631.40392337,355.18940535,258.77836686,12.349397590361447,set #2
1970-01-01 00:00:21.697105875,3.507747173309326,0.31585341691970825,0.8552459478378296,-82.51512749999999,-167.01935250000002,583.7914875,288.91282875,277.72679999999997,1720.8592537499999,352.81559625,173.45235375000001,12.650602409638555,set #2
1970-01-01 00:00:21.707269182,3.5133650302886963,0.31765592098236084,0.8597823977470398,73.29094421999999,-164.24700162,176.83619148,-203.93871342,-588.5702160000001,1699.05490716,130.05535686,23.528476140000006,12.951807228915664,set #2
1970-01-01 00:00:21.717175951,3.519033432006836,0.31942465901374817,0.8643952012062073,94.38291681,-354.49277565,-29.013963029999992,-404.98985475,-352.88535204,1450.9995009900001,-56.47423782,-286.06474845,13.253012048192772,set #2
1970-01-01 00:00:21.727366676,3.5244901180267334,0.3209957182407379,0.869024395942688,730.4585979600001,266.90436864,813.18115788,280.66016316,908.6380758,1057.70466048,300.61170516000004,-123.305364,13.554216867469881,set #2
1970-01-01 00:00:21.736842384,3.5299150943756104,0.3227396011352539,0.8738871812820435,6.191446559999999,-558.8738688,-13.72776288,-688.67079216,1236.88395168,740.87292864,-188.00144064,-568.44204768,13.85542168674699,set #2
1970-01-01 00:00:21.746953716,3.5352940559387207,0.32465434074401855,0.8788830041885376,367.78455948,241.2979452,636.32653968,-63.82820652000001,-157.79110151999998,741.8771115600001,6.256564080000004,-207.49901952,14.156626506024098,set #2
1970-01-01 00:00:21.757136335,3.5406808853149414,0.3267650306224823,0.884032666683197,162.80817735,81.61597275000001,751.8261815999999,279.43192875,-947.26198905,364.59363525,5.4219321,-106.86307125,14.457831325301207,set #2
1970-01-01 00:00:21.766961326,3.5461678504943848,0.32896655797958374,0.8893733024597168,-271.31178984,-396.62999298,-68.99442263999998,-493.64302338000005,-584.2620147,1180.29729402,-209.85338556,-331.788717,14.759036144578314,set #2
1970-01-01 00:00:21.777174940,3.552173614501953,0.3316439986228943,0.8955302834510803,-102.0611826,-69.2299998,354.729999,90.215541,-153.9388422,314.1735714,-97.82426160000001,-206.2820448,15.060240963855422,set #2
1970-01-01 00:00:21.787445535,3.558180809020996,0.3339298665523529,0.9015662670135498,106.38114239999999,-22.541405249999997,414.117561,255.213426,-349.64896200000004,181.71282870000002,-187.64628869999999,-223.51135365,15.361445783132531,set #2
1970-01-01 00:00:21.797122230,3.564279079437256,0.33600863814353943,0.9075620174407959,-237.62962860000002,180.6391392,114.5477853,207.9806235,-500.42490030000005,1194.5911497,461.3558079,29.753852700000003,15.66265060240964,set #2
1970-01-01 00:00:21.807181587,3.5702219009399414,0.3378659784793854,0.913465678691864,-37.70462553,77.73834978,945.5048148,938.15908641,204.56948148,262.79472843,263.42774484,163.91188476,15.963855421686748,set #2
1970-01-01 00:00:21.817248811,3.5763368606567383,0.33964306116104126,0.9196221232414246,303.8705241,367.68989907,568.06931454,266.75258064,913.3702819800001,-517.8494150700001,-42.78788319,146.30647161,16.265060240963855,set #2
1970-01-01 00:00:21.827193727,3.5825676918029785,0.3414008617401123,0.9260031580924988,-365.45158104,-248.34148989000002,-546.68428737,-824.3556562800001,-761.8491995400001,419.69686278,-223.91035797,-81.8316291,16.566265060240966,set #2
1970-01-01 00:00:21.837215652,3.5889289379119873,0.3433181345462799,0.9326964020729065,-615.7778718,-675.61435656,-7.472162880000013,-362.82521184,-1139.62479852,-332.39422632000003,-66.77755188,-27.51404916,16.867469879518072,set #2
1970-01-01 00:00:21.847673406,3.5956995487213135,0.3455026149749756,0.939900279045105,483.38589312,310.74660162000004,1293.0956469599998,771.8612413200001,-370.79325426,-925.6271060400001,510.32471334,206.93744214,17.168674698795183,set #2
1970-01-01 00:00:21.857084741,3.6023874282836914,0.34767329692840576,0.9473795294761658,-36.73037823,-302.57477874,1019.82211422,425.02050708,-730.2701718000001,-2079.47143326,420.45941769,-104.58653634,17.46987951807229,set #2
1970-01-01 00:00:21.867303600,3.608983278274536,0.34984466433525085,0.9549890160560608,-682.481436,-584.60142,-481.183404,-1171.313208,-110.95375200000001,-1991.5886639999999,265.28814,-793.373568,17.7710843373494,set #2
1970-01-01 00:00:21.878334035,3.6155452728271484,0.3520655930042267,0.962759256362915,-300.72240315,-223.32779820000002,-101.47288710000002,-868.2112452,262.77582825,-1990.73650425,151.83167805,-606.1331932500001,18.072289156626507,set #2
1970-01-01 00:00:21.887431612,3.622130870819092,0.3544069230556488,0.9708166718482971,1056.70323096,1421.94938964,1595.41434156,1004.4139747199999,5640.204492,-3981.2285900399997,501.51319295999997,33.21735923999999,18.373493975903617,set #2
1970-01-01 00:00:21.897495737,3.6287240982055664,0.35677066445350647,0.9791909456253052,761.2498491,1104.8379618899999,1770.47127816,911.47607265,407.028687,-2075.87267238,765.80656425,106.38281238,18.674698795180724,set #2
1970-01-01 00:00:21.907463541,3.6352791786193848,0.35909202694892883,0.9878122210502625,19.747635180000003,770.59113144,105.78299706000004,-112.90135817999999,-2992.1206614000002,2667.79492512,405.75436356,-69.54400479,18.975903614457835,set #2
1970-01-01 00:00:21.917403211,3.641768217086792,0.3615151345729828,0.9966431260108948,522.94401783,790.3602209100001,969.88795215,748.93291863,-3221.22717384,2983.86816468,258.89380530000005,428.80303089,19.27710843373494,set #2
1970-01-01 00:00:21.928310146,3.6482245922088623,0.36401575803756714,1.0057519674301147,-361.85511726,520.29055338,-223.31384789999998,-433.6401630600001,-2509.3842579,3942.6385900200003,-424.33215162,-81.98334768000001,19.57831325301205,set #2
1970-01-01 00:00:21.937063207,3.6546669006347656,0.3665282726287842,1.0152240991592407,294.60738762,1141.48019895,1136.10606642,1232.82656601,-2395.98121386,4773.235810200001,706.36786428,392.35919268000004,19.87951807228916,set #2
1970-01-01 00:00:21.948014249,3.6610214710235596,0.3690107464790344,1.0249537229537964,697.83604332,1168.49890131,962.18425758,977.63927157,-2623.62141951,5643.47527731,498.23657091,187.16665734,20.180722891566266,set #2
1970-01-01 00:00:21.957013359,3.6672422885894775,0.3715262711048126,1.0348345041275024,482.32138578,752.01307467,1990.2145925999998,1895.0523855899999,-1775.4645573599998,5350.38467808,797.7643385399999,489.37781061,20.481927710843376,set #2
1970-01-01 00:00:21.967181434,3.6733343601226807,0.374038964509964,1.0449377298355103,-76.26637044,53.6472222,190.1160183,499.54050042,-1160.08625928,4598.21446266,231.3366666,-52.1151852,20.783132530120483,set #2
1970-01-01 00:00:21.978099336,3.679377555847168,0.3763884902000427,1.0553007125854492,-412.0298208,-323.43906816000003,-744.79335528,-345.92942591999997,-106.86129480000001,3700.89702528,-66.11685912,-79.82352144000001,21.084337349397593,set #2
1970-01-01 00:00:21.987787952,3.6852593421936035,0.3786631226539612,1.0658029317855835,-1215.22787568,-1150.22424816,-691.74864096,-472.65228192,-84.92845920000002,3853.68786816,-309.10177584,-285.24646176,21.3855421686747,set #2
1970-01-01 00:00:21.997017374,3.691002607345581,0.38078147172927856,1.0763287544250488,246.03900204,487.5656916,539.2798990800001,582.1867272000001,586.47036162,2522.15477514,-19.40880942,71.7209493,21.68674698795181,set #2
1970-01-01 00:00:22.007505168,3.6966490745544434,0.38269418478012085,1.086932897567749,1103.25762144,385.74729648000005,598.78806,721.88646816,566.27294256,2456.55558096,283.30779359999997,272.60697984,21.987951807228917,set #2
1970-01-01 00:00:22.017096033,3.702218532562256,0.3844488561153412,1.0977500677108765,1861.1576645999999,-95.18825901,883.12175718,975.73289463,445.94707794,2239.3413970200004,219.84449916,238.53562395,22.289156626506028,set #2
1970-01-01 00:00:22.027881135,3.7076070308685303,0.38598746061325073,1.1085803508758545,767.04715035,-583.37450145,-2.8678708499999885,306.12368280000004,895.4950368,1897.16187375,-507.32480369999996,-314.85830805,22.590361445783135,set #2
1970-01-01 00:00:22.037652006,3.712824583053589,0.3873891532421112,1.1193941831588745,2392.97862648,904.7088390600001,1197.1687572,1423.99078302,1244.7497220599998,1366.27350288,33.65044878,374.58027438,22.89156626506024,set #2
1970-01-01 00:00:22.047584524,3.717921733856201,0.38854169845581055,1.1302101612091064,1060.1328238800002,-410.09614464000003,500.42378256,357.8527992,1356.36847164,1683.0008910000001,-252.59978796000001,-77.7400416,23.192771084337352,set #2
1970-01-01 00:00:22.057147493,3.722907781600952,0.38962751626968384,1.1412813663482666,83.39672055,-591.5229461700001,-213.14735871,-509.29036938,2495.29886346,1987.05049647,-687.31107549,-445.96902012,23.49397590361446,set #2
1970-01-01 00:00:22.067157497,3.727647304534912,0.39060458540916443,1.1523523330688477,1342.01780466,636.96359454,1394.05074354,1082.05852482,1580.90225358,772.78107231,164.92106709,91.51983906,23.79518072289157,set #2
1970-01-01 00:00:22.078136911,3.7321465015411377,0.39151060581207275,1.163291573524475,-164.32925652,-230.30459712,146.31370572,-306.16255839,-2566.66503405,-4372.82876121,-125.31792429,-54.37916991,24.096385542168676,set #2
1970-01-01 00:00:22.087219944,3.736471176147461,0.39226436614990234,1.1741318702697754,-339.04629408,-553.0719948,-267.39789336,-293.19913584,-738.56821584,-5492.58500856,-98.11971624,-63.99690024,24.397590361445786,set #2
1970-01-01 00:00:22.097368230,3.7406933307647705,0.3927540183067322,1.1850941181182861,-194.75097720000002,81.4041891,-463.8667488,-632.0377556999999,-1294.2402290999999,-4711.4834793,-496.133118,-289.00228890000005,24.698795180722893,set #2
1970-01-01 00:00:22.107239236,3.7446625232696533,0.3931686282157898,1.1960597038269043,960.00797724,1051.8896544,1351.18245912,1359.47699784,-2227.18647216,-2863.74815688,380.51178828,344.53400436000004,25.000000000000004,set #2
1970-01-01 00:00:22.117522945,3.7484095096588135,0.39354875683784485,1.2070565223693848,1031.81758095,1284.3440570999999,1314.4088334,1236.3096154500001,-561.49891395,-5610.4214088,440.464869,492.4564125,25.30120481927711,set #2
1970-01-01 00:00:22.128267040,3.7519545555114746,0.39385074377059937,1.2179824113845825,-445.0715568,133.355976,266.1242064,293.8895856,-1117.882896,-3508.0114368,-162.4854192,80.521896,25.60240963855422,set #2
1970-01-01 00:00:22.137141695,3.7553300857543945,0.39408019185066223,1.228917121887207,571.0722264000001,1186.6664862,1287.3978585,1256.62474665,-1621.98059205,-2014.56133905,-94.69215209999999,193.5351795,25.903614457831328,set #2
1970-01-01 00:00:22.147372474,3.7584445476531982,0.3942127525806427,1.2398043870925903,-31.623362939999993,732.5418110400001,1737.9645231,1614.86405028,-2607.41071968,-668.2037980800002,515.4162936,966.79561446,26.204819277108435,set #2
1970-01-01 00:00:22.157301177,3.7613518238067627,0.39430320262908936,1.2505371570587158,-1513.69621416,-367.95024084,250.53984773999997,374.55174315,107.61410673,-407.20847505000006,-582.97097664,-124.86138717000001,26.506024096385545,set #2
1970-01-01 00:00:22.168010225,3.7640771865844727,0.39431750774383545,1.2611925601959229,-1775.7454065,-839.79245025,-1112.3498295000002,-950.9053710000001,1456.6977555,-1519.13551725,-1077.26095425,-733.8842940000001,26.80722891566265,set #2
1970-01-01 00:00:22.177699556,3.7666375637054443,0.39423245191574097,1.2719085216522217,-425.71819056000004,709.99211244,594.2960259600001,599.61422508,1264.62166272,-2003.61221736,-416.44765811999997,82.42977911999999,27.108433734939762,set #2
1970-01-01 00:00:22.187056055,3.7690060138702393,0.39404213428497314,1.2824852466583252,56.97578445,794.8528964999999,2443.64544255,1878.8351088,982.2140718,-697.44333165,511.4178693,780.91900575,27.40963855421687,set #2
1970-01-01 00:00:22.197391738,3.7712204456329346,0.39380398392677307,1.292978286743164,-1992.11447058,-1103.27563164,-1185.6934011,-1107.30226854,1832.2010725199998,-2690.57104212,-923.45335056,-475.16112306,27.71084337349398,set #2
1970-01-01 00:00:22.207699527,3.773247718811035,0.3935791850090027,1.3033645153045654,178.78447041,761.87786688,987.1247111700001,822.41029416,1832.30553246,-1497.7424260500002,20.81699178,326.35184634,28.012048192771086,set #2
1970-01-01 00:00:22.217414131,3.7750844955444336,0.39334481954574585,1.313693881034851,897.63266697,1046.17298604,3366.70325472,2581.9840351499997,1753.00675602,-703.8816166199999,505.82215398,528.0236929499999,28.313253012048197,set #2
1970-01-01 00:00:22.227966775,3.7767281532287598,0.3930095136165619,1.3238524198532104,-1340.8133115,-519.9466935,350.61759525,-270.93726075000006,1858.90936725,-1682.2398645,-81.29120024999997,280.926828,28.614457831325304,set #2
1970-01-01 00:00:22.237624158,3.778207540512085,0.39278915524482727,1.3339474201202393,-1836.9362426999999,-1052.86506468,-634.51131666,-1470.46222518,2258.71503234,-1598.42401602,-981.9605343600001,-698.79611334,28.915662650602414,set #2
1970-01-01 00:00:22.247628917,3.7795634269714355,0.3925027549266815,1.3438760042190552,1071.10158363,1009.59799473,3299.69578068,2158.02802566,1470.56864643,-405.16497606,839.11437558,916.14827304,29.21686746987952,set #2
1970-01-01 00:00:22.257077445,3.7807767391204834,0.39214077591896057,1.3536611795425415,558.7737363,541.28888775,1851.58313535,1034.16001455,1674.4812239999999,-1600.1014672499998,41.16142485,249.40864845,29.518072289156628,set #2
1970-01-01 00:00:22.267617931,3.7818734645843506,0.3916468322277069,1.363287091255188,-404.00232015000006,347.59088325,359.40278438999997,-463.36757883,2063.8084248600003,-1155.38513727,-304.56309975,-76.39239192,29.819277108433738,set #2
1970-01-01 00:00:22.278607358,3.7828359603881836,0.3912256360054016,1.3726426362991333,-684.0452330400001,-210.70379382000002,448.20666072,-574.8188862000001,1868.5570480200001,-1900.33282686,-562.75053432,-170.40935964000002,30.120481927710845,set #2
1970-01-01 00:00:22.287794342,3.783691167831421,0.3907378017902374,1.381785273551941,-283.75191702,126.67362161999999,932.56222488,-68.31053423999992,1115.4990522,631.08657378,112.86320838000002,444.68205600000005,30.421686746987955,set #2
1970-01-01 00:00:22.297323932,3.784437894821167,0.39023372530937195,1.3908463716506958,-856.8762586800001,-252.41694192,187.10052972000003,-438.50783808,-580.8501738,4729.2572917200005,-311.40197712,49.16232204,30.722891566265062,set #2
1970-01-01 00:00:22.306918373,3.7851028442382812,0.38962918519973755,1.399832844734192,299.55679533,350.47553619,661.74107337,317.55927606,-84.21248238000001,3381.35946018,59.06471181,309.56417232,31.024096385542173,set #2
1970-01-01 00:00:22.316966524,3.785688638687134,0.3889772593975067,1.408686637878418,372.59009424000004,293.03647307999995,298.08984036000004,-110.34710856000004,1062.4858467600002,-107.43283824000002,-300.24330648000006,-74.52886896,31.32530120481928,set #2
1970-01-01 00:00:22.328530778,3.78619647026062,0.3882923722267151,1.4174221754074097,-576.11624694,-540.53360946,-353.09581944,-757.10275446,829.95734406,247.04421612,-22.294296180000003,174.09471066,31.62650602409639,set #2
1970-01-01 00:00:22.337096920,3.7866601943969727,0.3875143826007843,1.426099419593811,-814.6945248,-634.2943932,-1053.301002,-1188.0904620000001,720.8072820000001,720.8559228,-202.67041079999998,-46.3510476,31.927710843373497,set #2
1970-01-01 00:00:22.347560634,3.7870588302612305,0.3866126835346222,1.434637427330017,1239.99535998,787.8059592000001,1217.7344524799998,1078.9173805799999,976.80991434,516.87988014,261.57255150000003,338.97806514,32.22891566265061,set #2
1970-01-01 00:00:22.357307424,3.7873761653900146,0.38568416237831116,1.4429360628128052,-57.84290304000001,-225.95554176000002,404.30049504,227.15674176,636.07056864,1561.9840080000001,13.97859840000001,19.619995200000005,32.53012048192771,set #2
1970-01-01 00:00:22.367266883,3.78761625289917,0.38479846715927124,1.451160192489624,-1207.5458631600002,-1256.73043158,-1682.9000100899998,-1693.03186845,183.67152999,-1495.8880638,-618.5192730599999,-416.23716381,32.83132530120482,set #2
1970-01-01 00:00:22.378127803,3.7878150939941406,0.3838244080543518,1.45926833152771,-99.74975595000001,-425.96721141,713.99755752,191.97558275999998,571.30364421,1288.92735894,-114.38881311,21.77449053,33.13253012048193,set #2
1970-01-01 00:00:22.387355794,3.7879133224487305,0.3828031122684479,1.4673141241073608,751.77623274,101.38578060000006,2590.8200541600004,1720.68821106,475.76117081999996,1354.55585772,429.23701314,378.55073802,33.43373493975904,set #2
1970-01-01 00:00:22.397320737,3.78792667388916,0.381702721118927,1.4751306772232056,1.690694459999996,-203.78790665999998,289.05064344,-72.13100622,-665.736201,2960.84116614,-155.47090728,-48.59957934,33.734939759036145,set #2
1970-01-01 00:00:22.407164087,3.787902593612671,0.38049525022506714,1.4827444553375244,-303.24979658999996,-279.18567222,-620.39704701,-537.91934586,1081.44303306,-2462.66719101,-121.92329136000001,-43.66731564,34.036144578313255,set #2
1970-01-01 00:00:22.417123308,3.787863254547119,0.37921127676963806,1.4901797771453857,325.5987618,424.45023972,949.68644472,548.39343936,1182.2673564,-3968.75935716,-155.4178938,-14.527916520000002,34.337349397590366,set #2
1970-01-01 00:00:22.427506198,3.7877840995788574,0.37785205245018005,1.497389316558838,-1304.5736067,-558.9032428200001,103.7746359,-315.82370586,566.0131144200001,6.7890693,-62.12771448,-4.75741656,34.638554216867476,set #2
1970-01-01 00:00:22.437355270,3.7875990867614746,0.37654614448547363,1.5043537616729736,287.1729939,197.38495919999997,1760.2482573,842.2847939999999,263.0111562,2453.4176667,52.054977,227.6107119,34.93975903614458,set #2
1970-01-01 00:00:22.447752227,3.7873599529266357,0.3753698170185089,1.5110751390457153,-139.40017182000003,190.38761079,286.91653419,158.52508698,1399.8225196800001,-1040.67510768,-223.03458177000002,-145.06629813,35.24096385542169,set #2
1970-01-01 00:00:22.457022657,3.78702449798584,0.3742690682411194,1.5177526473999023,1002.00239568,835.43925465,1265.90124531,1177.4993809799998,62.726337570000005,-130.24012365000002,154.53017112,222.50805681,35.5421686746988,set #2
1970-01-01 00:00:22.466877927,3.7865264415740967,0.37327754497528076,1.524382472038269,-1130.43897135,-1017.4832073900001,-1329.6362383199998,-1403.05602138,842.10662757,-793.2679914900001,-501.10675524,-383.74482353999997,35.8433734939759,set #2
1970-01-01 00:00:22.478171577,3.7859880924224854,0.37217873334884644,1.5309003591537476,-87.15622968,-90.4928778,-568.07499333,-356.46649428,979.89190221,-474.57018999,-16.301650170000002,44.993238809999994,36.144578313253014,set #2
1970-01-01 00:00:22.487809886,3.7854011058807373,0.3711099922657013,1.53719961643219,-1086.2241444600002,-513.7263885,-1226.4032047800001,-1240.99633944,298.60283310000005,463.29776298,-106.17936186,-227.07193548,36.445783132530124,set #2
1970-01-01 00:00:22.496957530,3.784790277481079,0.37012505531311035,1.5432652235031128,-1433.3358663,-965.1740982,-2581.9989429,-1670.2579217999998,-58.476627300000004,-249.56839829999998,-633.2771835,-485.8970142,36.746987951807235,set #2
1970-01-01 00:00:22.507434835,3.7841384410858154,0.3691342771053314,1.5491079092025757,-117.28613715,14.042675400000007,-369.94102860000004,-17.495086049999998,177.3917964,66.19505295,-14.358456449999998,-84.01550040000001,37.04819277108434,set #2
1970-01-01 00:00:22.517184486,3.783468723297119,0.36821940541267395,1.5545871257781982,102.24495372000001,139.92864678,-635.86561974,-224.32282158,417.58619292000003,248.56610064,-340.77864678000003,-86.4254586,37.34939759036145,set #2
1970-01-01 00:00:22.527611722,3.7828166484832764,0.36740660667419434,1.559718132019043,-21.06711984,-41.24925558,-235.9309914,-16.82291832,399.3842736,598.6707136800001,-226.43998728,-170.72711136,37.65060240963856,set #2
1970-01-01 00:00:22.536931743,3.782184600830078,0.3666369616985321,1.564637541770935,-888.54518766,-429.81731364000007,-1803.0308353199998,-1299.4028463,-12.45337977,1330.40863722,-240.21486957000002,-193.68134448,37.95180722891567,set #2
1970-01-01 00:00:22.547052612,3.7815067768096924,0.3659110963344574,1.5693708658218384,208.3458468,301.7413854,1257.04232316,1154.49490416,-205.39945763999998,1875.8716158,305.14327896,-84.08429640000001,38.25301204819277,set #2
1970-01-01 00:00:22.556975831,3.7808258533477783,0.36518970131874084,1.5738823413848877,-1351.5013129800002,-1025.55559587,-215.09789223,-6.58161192,263.89039209000003,1739.31751734,179.92139294999998,-187.29955374,38.55421686746988,set #2
1970-01-01 00:00:22.566938152,3.7801413536071777,0.36457154154777527,1.578125238418579,23.82632616,-129.88191528000002,96.3654588,322.11181392,-100.8094776,1900.6539552,-62.455214639999994,-199.39490999999998,38.85542168674699,set #2
1970-01-01 00:00:22.578079929,3.7794644832611084,0.3640204071998596,1.5822043418884277,-290.2614936,-76.72748382,-1116.19419639,-599.33855982,57.6088149,1996.18764033,-5.86662453,-58.200747930000006,39.1566265060241,set #2
1970-01-01 00:00:22.587278833,3.7787880897521973,0.3634626567363739,1.5860658884048462,1889.22767436,1434.61867302,2691.79644669,2276.09686044,-301.35728454,2160.17005815,795.08300274,534.24974694,39.45783132530121,set #2
1970-01-01 00:00:22.597020378,3.7781269550323486,0.36291319131851196,1.5896087884902954,770.3139288000001,547.5489435,939.43456074,967.2026551199999,-112.43046048000001,2152.47450522,249.80214402,-13.85801274,39.75903614457832,set #2
1970-01-01 00:00:22.608107080,3.7775135040283203,0.3624144494533539,1.592830777168274,-959.0696856000001,-684.8817612,-1502.3551296,-1040.9407008,395.5052712,2197.4680416,-226.9113132,-283.04850600000003,40.06024096385543,set #2
1970-01-01 00:00:22.617236604,3.7769923210144043,0.3619096577167511,1.5958796739578247,-668.5368081600001,-464.30409636,-298.17862307999997,-185.67299400000002,0.0004118399999981648,2002.3486095599999,-106.61887236,-281.51799312,40.36144578313253,set #2
1970-01-01 00:00:22.627693881,3.7764742374420166,0.36139199137687683,1.598770022392273,-299.57267223,-62.42867631,135.79917351,310.62656196,2.16082152,2436.64049694,213.40548177,-20.869087200000003,40.66265060240964,set #2
1970-01-01 00:00:22.637292613,3.775994062423706,0.36087149381637573,1.6013137102127075,325.65223626,254.78188281,175.43847672,586.73991402,-353.20807821,2070.5454307200002,8.262154289999998,-150.55986426,40.96385542168675,set #2
1970-01-01 00:00:22.647606124,3.7755849361419678,0.3603762686252594,1.6034737825393677,893.21029512,434.86327716,1251.70247904,1421.18247492,-12.205486800000003,2042.55416508,456.28872587999996,91.17314388,41.26506024096386,set #2
1970-01-01 00:00:22.657330503,3.775256395339966,0.3598788380622864,1.605368733406067,-434.92171905000004,-327.91052424000003,-320.19930462,97.58379501,533.6010962099999,-348.10925057999987,80.10232854,-239.01701616,41.566265060240966,set #2
1970-01-01 00:00:22.667093505,3.77498459815979,0.3593531847000122,1.6069787740707397,195.03101085,332.39857365,15.601528800000002,346.64253585,-177.6548319,1509.4255721999998,330.18762465,-27.2423541,41.867469879518076,set #2
1970-01-01 00:00:22.678295602,3.774793863296509,0.3588174879550934,1.6082638502120972,332.24640072,211.05354816,744.40273128,868.16488824,-4185.65896788,3083.0042568000003,478.3801308,129.51683472,42.168674698795186,set #2
1970-01-01 00:00:22.687787046,3.774683952331543,0.358355849981308,1.6093353033065796,328.07612136,171.10112136,602.65666266,660.04709706,3136.0929288,-3586.80979488,160.93378470000002,-66.84000258,42.46987951807229,set #2
1970-01-01 00:00:22.697528352,3.7746548652648926,0.3579829931259155,1.6101899147033691,-949.84925568,-793.6843200000001,-910.6247779199999,-574.9492694400001,1798.23118176,-3098.0760720000003,-109.09645343999999,-372.16228608,42.7710843373494,set #2
1970-01-01 00:00:22.707214107,3.7746570110321045,0.3575894236564636,1.6108458042144775,-42.72684078000001,24.132301050000002,-626.79458829,-201.82792734,-862.12217676,-972.37931817,-122.86561248,-151.97630448,43.07228915662651,set #2
1970-01-01 00:00:22.717314233,3.7746970653533936,0.35722896456718445,1.6111817359924316,389.09492037,142.36694043,393.07234434000003,648.2347271399999,3384.7290402900003,-4088.19424377,178.4051607,-46.42118403,43.37349397590362,set #2
1970-01-01 00:00:22.727771272,3.7747974395751953,0.3569328188896179,1.6112234592437744,412.2113236800001,145.26009263999998,-582.11173176,4.405240319999962,-2289.1678367999993,4997.18309376,-201.68107128000003,-104.50993487999999,43.674698795180724,set #2
1970-01-01 00:00:22.736901035,3.7749791145324707,0.3566736876964569,1.6110177040100098,149.10334139999998,-80.4769914,-73.95699675,82.54325820000001,-5990.307096150001,743.7960601499999,-187.91165055,-331.3650483,43.975903614457835,set #2
1970-01-01 00:00:22.747437467,3.7751808166503906,0.3564589023590088,1.6106009483337402,-830.6319843900001,-802.99096605,-1161.67273326,-794.34037644,-5575.424260770001,1364.95066851,-578.6935287900001,-223.15903233,44.277108433734945,set #2
1970-01-01 00:00:22.757123222,3.7754247188568115,0.35632240772247314,1.6098610162734985,287.86908384000003,-38.34276108,109.70589864000002,510.78568320000005,2339.31377082,-3890.38619814,251.59540614,-70.6214145,44.578313253012055,set #2
1970-01-01 00:00:22.767616024,3.7757201194763184,0.356329083442688,1.6087812185287476,1201.20310752,463.67006399999997,1188.8901991199998,1320.84400968,-3686.41474968,-535.0146672,163.37447568,221.58339528,44.87951807228916,set #2
1970-01-01 00:00:22.777835359,3.7760801315307617,0.35636770725250244,1.6075249910354614,145.41096843,41.513888910000006,-403.74326694,-103.93605495,-4355.99693724,2127.74603457,-5.178363839999996,-357.05619261,45.18072289156627,set #2
1970-01-01 00:00:22.787028779,3.776474952697754,0.3563883304595947,1.6060972213745117,-282.67055661,-517.4749140600001,-1051.73214783,-502.70149994999997,-3424.47470937,3961.4013000900004,-599.1606285600001,-174.1701429,45.48192771084338,set #2
1970-01-01 00:00:22.796824207,3.776942014694214,0.3563641309738159,1.6043959856033325,535.51336449,238.44235545,696.3099140400001,791.77670442,-2108.74523691,4837.2718325099995,414.52794201,-61.51484820000001,45.78313253012048,set #2
1970-01-01 00:00:22.807641496,3.777514934539795,0.3563652038574219,1.6023520231246948,103.94531472,-205.7781336,-313.27859472,-161.04138336,-3936.04360656,4580.08651464,-396.2068344,-186.78027264,46.08433734939759,set #2
1970-01-01 00:00:22.817352046,3.7782108783721924,0.35632869601249695,1.6001226902008057,445.49784474,29.616458039999998,646.51481778,735.05668782,-2981.4702060000004,3597.36851058,232.72072902,-68.79714738,46.385542168674704,set #2
1970-01-01 00:00:22.827566375,3.778965950012207,0.35630279779434204,1.5976969003677368,783.6228075,371.21813625,1259.9362425,1247.1424875,-2136.8304749999998,3368.7493125,343.30183875,117.7214025,46.686746987951814,set #2
1970-01-01 00:00:22.837063541,3.7797086238861084,0.35631969571113586,1.5951093435287476,-500.02896840000005,-516.37840995,-284.91690747,-198.40703453999998,-1955.7276566100002,2491.8839509199997,-172.03595487,-283.59628557,46.98795180722892,set #2
1970-01-01 00:00:22.847676029,3.7804768085479736,0.3564506471157074,1.5922752618789673,654.36154563,261.41019606000003,788.58716898,773.68473624,-2034.38542905,2012.7680921400001,45.59421048,-66.92513100000001,47.28915662650603,set #2
1970-01-01 00:00:22.857295265,3.7812442779541016,0.35665398836135864,1.5893553495407104,-198.81537974999998,-475.0706259,-978.8832651000001,-653.9122239,-2029.6110451499999,1760.9792655,-382.50800250000003,-236.19987495,47.59036144578314,set #2
1970-01-01 00:00:22.867243280,3.781993865966797,0.35692328214645386,1.5863137245178223,-1203.3013512,-1058.1453168,-901.7193120000001,-840.054384,-1317.2286504,2502.4602720000003,-240.8719872,-219.13476000000003,47.89156626506025,set #2
1970-01-01 00:00:22.878139247,3.7826719284057617,0.3572446405887604,1.5830729007720947,240.75601017,79.98188094,303.84439488,253.80944082000002,-1404.08044608,1113.2344883399999,57.080293530000006,65.09963265,48.19277108433735,set #2
1970-01-01 00:00:22.887567272,3.7833471298217773,0.35771071910858154,1.5795921087265015,-1042.2005568,-1064.37591312,-1806.01046808,-1660.81394232,-1004.9166035999999,282.23517816000003,-491.51073504,-411.60185976,48.49397590361446,set #2
1970-01-01 00:00:22.898850908,3.7840065956115723,0.3582807183265686,1.5760241746902466,-106.5800112,-488.67514488,-462.15709956,-340.05841896000004,-790.18546776,1000.85503908,2.154019919999996,2.3206903200000113,48.79518072289157,set #2
1970-01-01 00:00:22.907056083,3.7846062183380127,0.3589387536048889,1.5723202228546143,-45.61299444,-257.84636045999997,-870.05694282,-468.18436899,-837.18223719,1148.6428332599999,-117.6665919,-179.61988785,49.096385542168676,set #2
1970-01-01 00:00:22.917078247,3.7851593494415283,0.3596274256706238,1.5684562921524048,287.90518029000003,52.941181799999995,29.86039173,40.745586180000004,-735.7694619600001,891.0370700400001,53.09798754,5.3840202,49.397590361445786,set #2
1970-01-01 00:00:22.927705755,3.7856998443603516,0.36038216948509216,1.564401388168335,-401.09508855,-433.26984285,-434.73355575,-477.4405974,-724.0159329,722.4966001500001,-177.3377775,-195.0224445,49.6987951807229,set #2
1970-01-01 00:00:22.937428941,3.786224126815796,0.3612512946128845,1.56024169921875,133.65107652,-20.92244388,-26.784551039999997,-30.99692856,-692.93677167,498.88405866,-6.171457890000003,-56.870448960000004,50.00000000000001,set #2
1970-01-01 00:00:22.947207679,3.7867166996002197,0.3621375858783722,1.556032419204712,289.84349472,-97.3196367,229.25055348,142.23018147,-635.30488749,242.21143596,9.874204080000002,-35.19563151,50.30120481927711,set #2
1970-01-01 00:00:22.957244148,3.7872023582458496,0.3629932999610901,1.5516120195388794,-593.499114,-543.67104324,-857.17852584,-853.28127456,-246.76629119999998,-12.633918959999999,-458.3933172,-462.88680827999997,50.60240963855422,set #2
1970-01-01 00:00:22.967284908,3.7876806259155273,0.3639405369758606,1.546976923942566,108.3097002,-60.956903280000006,-302.59712184,-310.51100964,-11.24233656,-19.93728048,56.7634236,142.4897292,50.90361445783133,set #2
1970-01-01 00:00:22.977870931,3.788174867630005,0.3648892045021057,1.5422011613845825,-503.17985406,-694.62408795,-1356.56314365,-996.8221029,-67.86412659,-322.39536693,-200.6324034,-144.65470812,51.20481927710844,set #2
1970-01-01 00:00:22.988615980,3.788691282272339,0.36578288674354553,1.537300944328308,255.6600462,-65.1973842,60.779628,-92.927601,36.5494272,-528.0700776,155.9355876,142.7187762,51.506024096385545,set #2
1970-01-01 00:00:22.997344245,3.789236545562744,0.3666115403175354,1.5321578979492188,-1.7152570499999982,-106.59807795,123.66933735,-57.66892755000001,-154.5544884,-886.6108446000001,26.72982975,-16.470392250000003,51.807228915662655,set #2
1970-01-01 00:00:23.007841577,3.789818048477173,0.36737489700317383,1.5268235206604004,199.52652447,37.97370603,398.07720303,464.78173287,-1755.1543545900001,-2500.8338487600004,-58.17751563,-99.49039659,52.108433734939766,set #2
1970-01-01 00:00:23.017570486,3.7904601097106934,0.36809682846069336,1.5213314294815063,-57.64525104,-117.54031379999999,-450.06646464,-242.77186206000002,1809.51414228,-4579.07428836,-211.64190372000002,-170.14807524000003,52.40963855421687,set #2
1970-01-01 00:00:23.027876844,3.7911641597747803,0.36867961287498474,1.5156933069229126,133.86528012000002,81.31648356,-658.5835978800001,-464.0561484,2519.75696388,-1505.134488,-159.85824348,17.936862839999996,52.71084337349398,set #2
1970-01-01 00:00:23.037945976,3.7918567657470703,0.36917582154273987,1.5098721981048584,106.75248479999999,-61.28869968,-72.10031712,38.29933536,2078.48202432,-1597.15057632,153.96121416,179.63713872,53.01204819277109,set #2
1970-01-01 00:00:23.048360338,3.792534589767456,0.36968284845352173,1.5038371086120605,-346.43164452,-256.59014472,-929.71578804,-762.2264933399999,1736.22010458,-2081.66028252,-120.59993556,-82.68736320000001,53.3132530120482,set #2
1970-01-01 00:00:23.057357540,3.7932355403900146,0.370121031999588,1.4977213144302368,-71.0237658,-295.62338520000003,-872.1114246,-522.9089736000001,2176.3828086,-1851.4350114,-114.68385239999999,-97.0946886,53.6144578313253,set #2
1970-01-01 00:00:23.067273845,3.7939093112945557,0.3704722225666046,1.4915117025375366,13.2785991,-161.931081,-410.48560605,-57.97718939999999,1404.72696585,-1376.3192976,52.36549110000001,-38.77041869999999,53.915662650602414,set #2
1970-01-01 00:00:23.078263034,3.7945094108581543,0.3707074820995331,1.485113501548767,122.75108898,-135.87440178,241.53692784,413.54811108,2018.9135779800001,-424.06216476,186.33689958,-10.70643522,54.216867469879524,set #2
1970-01-01 00:00:23.087391605,3.7950596809387207,0.37092965841293335,1.4784921407699585,-103.0747809,-218.1003201,-986.38896525,-438.06157394999997,1443.96057,-20.72556915,-104.2940808,-67.93269599999999,54.518072289156635,set #2
1970-01-01 00:00:23.097440233,3.7956535816192627,0.3711766004562378,1.4716235399246216,-84.11150397,-174.37490655,-568.638174,-223.85430483000002,1603.21832931,534.50066358,147.35063265,24.069117930000008,54.81927710843374,set #2
1970-01-01 00:00:23.107214918,3.7961273193359375,0.37133970856666565,1.4647539854049683,-12.399834720000001,-442.33787676,-304.34047254,130.48932234,1075.41464316,392.46768054,141.78896550000002,-18.21850991999999,55.12048192771085,set #2
1970-01-01 00:00:23.117418041,3.7965407371520996,0.37144914269447327,1.4577653408050537,-241.6251669,-296.27866554,-770.0169789,34.77316245000006,792.4635295200001,-212.23718256,331.77774318,170.54694618000002,55.42168674698796,set #2
1970-01-01 00:00:23.127899875,3.796861171722412,0.37161514163017273,1.4506887197494507,-83.98255125,-119.44252125,-412.41066750000005,168.65077125,430.27934625,42.120000000000005,183.39540375,43.532823750000006,55.72289156626506,set #2
1970-01-01 00:00:23.137986650,3.7971086502075195,0.37177175283432007,1.4435312747955322,-89.39281650000001,-54.686151,-755.1673935,-251.42984099999998,940.2100305,497.208348,2.9075084999999987,-70.0745565,56.02409638554217,set #2
1970-01-01 00:00:23.147206535,3.797269344329834,0.3719780445098877,1.4363433122634888,35.35800255,160.67881050000003,101.59447935,130.99478145,529.0099893,902.4020382000001,-26.72750535,48.83054865,56.32530120481928,set #2
1970-01-01 00:00:23.157511224,3.7973296642303467,0.37214359641075134,1.4289003610610962,-366.06356592,-424.31958504,-102.02637744,-219.48922632,-211.62347232,855.89126376,-94.40700048000001,-98.8311324,56.62650602409639,set #2
1970-01-01 00:00:23.167260160,3.7972450256347656,0.3724154233932495,1.42128586769104,147.9283728,-184.908048,102.0550128,-124.4671584,1072.062576,-709.5179519999999,-86.500752,53.754916800000004,56.9277108433735,set #2
1970-01-01 00:00:23.177792539,3.797055721282959,0.3727757930755615,1.4136641025543213,-22.788864540000006,-99.15359805,-484.88110944000005,-325.09698077999997,-118.24420763999996,-449.22040254,-264.89417214,-38.05661964,57.22891566265061,set #2
1970-01-01 00:00:23.188377609,3.7967543601989746,0.37316927313804626,1.4061155319213867,419.22001758000005,173.26582104000002,206.67743382,336.28803702,-477.99610092,-2524.12940247,-89.40028695000001,124.05699228,57.53012048192772,set #2
