,x,y,z,emg_1,emg_2,emg_3,emg_4,emg_5,emg_6,emg_7,emg_8,percentage,Source
1970-01-01 00:00:18.997466207,3.7027747631073,0.23131847381591797,1.8093628883361816,85.46082597,30.371301869999996,-477.19567272,-469.12402017,-121.72464993,23.710924379999998,-37.713011699999996,-86.83767534,0.0,set #1
1970-01-01 00:00:19.007353425,3.7027907371520996,0.23124967515468597,1.809425711631775,232.09864275,-9.042101250000002,-129.45228075,-85.2935655,-146.60955075,-2.669101500000001,-32.86954125,-117.68812575000001,0.26455026455026454,set #1
1970-01-01 00:00:19.018250585,3.7028419971466064,0.23126092553138733,1.8094638586044312,115.76284395,-38.64932175,721.41504825,356.4146664,-148.1990874,17.66278605,197.1938241,97.9205721,0.5291005291005291,set #1
1970-01-01 00:00:19.027384639,3.7029690742492676,0.23127423226833344,1.8094456195831299,171.49115022,-41.97454053,236.11181333999997,42.38826852,-118.22942898,-6.30038682,68.29618809000002,8.02531314,0.7936507936507936,set #1
1970-01-01 00:00:19.037597776,3.703218698501587,0.23131251335144043,1.8092576265335083,-92.51911968,-84.19573344,-665.93996352,-705.2934720000001,-128.55614304,-51.242530560000006,-226.8759168,-142.31007024000002,1.0582010582010581,set #1
1970-01-01 00:00:19.047902227,3.703552484512329,0.23144295811653137,1.8089072704315186,672.12740166,326.39430642,801.90940479,596.39178573,-98.71152174,-2.15273292,-60.29111283000001,-150.05434781999998,1.3227513227513228,set #1
1970-01-01 00:00:19.057406068,3.7039575576782227,0.23159602284431458,1.8084933757781982,158.77117619999999,-19.910918040000002,-166.90845912,-254.66640888,-72.79870572,22.88097708,-82.11639384,-30.4848414,1.5873015873015872,set #1
1970-01-01 00:00:19.067529798,3.7044661045074463,0.23183520138263702,1.807960033416748,-310.19044134,-320.80828962,-1332.71095698,-1053.23853258,-81.7296207,-14.832803700000001,-353.52337878000003,-242.39799947999998,1.8518518518518516,set #1
1970-01-01 00:00:19.077658534,3.7050259113311768,0.23200158774852753,1.8073194026947021,233.0395002,5.279417520000001,128.93800452,17.29811538,-100.11581736,22.82921082,-33.654099959999996,-32.99783916,2.1164021164021163,set #1
1970-01-01 00:00:19.088130594,3.7056264877319336,0.23227061331272125,1.8065022230148315,109.88496246,-209.57009892,63.09162054000001,35.47413246,-121.80518688,45.7973919,24.85512276,10.01322738,2.380952380952381,set #1
1970-01-01 00:00:19.097639680,3.7064342498779297,0.23263457417488098,1.8055535554885864,-17.279059199999995,-128.50849440000002,-861.738696,-776.1496704000001,-56.308512,7.286136000000001,-278.5131024,-88.01438879999999,2.6455026455026456,set #1
1970-01-01 00:00:19.107429385,3.707343578338623,0.2330223172903061,1.8044549226760864,-433.1704923,-549.49133265,-1078.0590249,-982.5809916000001,-123.46387365,-9.2023113,-404.8937295,-226.2395265,2.91005291005291,set #1
1970-01-01 00:00:19.118013501,3.7082390785217285,0.23343048989772797,1.8032349348068237,407.97195347999997,187.34743092,387.52273872,277.31160327,-89.04146511,15.72110397,-13.84972368,30.062134049999997,3.1746031746031744,set #1
1970-01-01 00:00:19.127421260,3.709313154220581,0.23391126096248627,1.801788330078125,-51.1206852,-195.4467918,-497.19005699999997,-497.9516568,-76.8668472,-21.643463399999998,-204.75304979999999,-64.0275402,3.439153439153439,set #1
1970-01-01 00:00:19.137514949,3.7104949951171875,0.23444297909736633,1.800224781036377,-89.68772241,-219.47671824,-212.29470990000002,-268.67501934000006,-70.91909253,-23.25424725,-245.76152484,-81.76714221,3.7037037037037033,set #1
1970-01-01 00:00:19.147202373,3.711726665496826,0.23500216007232666,1.7985405921936035,196.02779274,169.0630461,418.45475334,250.22273835,-50.13800649,45.2585094,105.94437399,250.61638563000002,3.968253968253968,set #1
1970-01-01 00:00:19.157589793,3.7131099700927734,0.2355578988790512,1.7966135740280151,-137.10846747000002,-209.52679098,-488.14254138,-560.03454546,-90.30086715,-24.67909431,-301.67034573,-95.75438223,4.232804232804233,set #1
1970-01-01 00:00:19.167731405,3.714617967605591,0.23616571724414825,1.7945102453231812,284.70805740000003,85.8531804,-70.3724385,-89.43570285,-131.09479305000002,-12.549299099999999,-227.88409215,-26.53289535,4.497354497354497,set #1
1970-01-01 00:00:19.177190185,3.7162668704986572,0.23679418861865997,1.7922866344451904,171.61675440000002,-31.045602900000006,328.01402985,102.5545287,-110.42264805,-26.20894185,-202.5033114,-32.58774675,4.761904761904762,set #1
1970-01-01 00:00:19.187698245,3.7180819511413574,0.23739159107208252,1.7898941040039062,-624.11293425,-610.3712316,-1585.1354376000002,-1416.5396427,-125.57727585,-98.28412035,-701.31379695,-349.14379695,5.026455026455026,set #1
1970-01-01 00:00:19.198061586,3.719939708709717,0.23805291950702667,1.7873116731643677,-72.08902896000001,-162.08086673999998,-178.23714714,-398.14537542,-182.99061066000002,-58.32331518,-292.10682618000004,-128.50062108,5.291005291005291,set #1
1970-01-01 00:00:19.207398296,3.7219014167785645,0.238743394613266,1.784571647644043,158.99684736,-88.77172824,104.90044968,4.3732790400000034,-120.705,-1.6987214400000008,-131.12887944,17.09105736,5.555555555555555,set #1
1970-01-01 00:00:19.218149543,3.724026679992676,0.2394060492515564,1.781684398651123,-68.33548566,-156.80716389,26.60892078000001,-204.81508632,35.99486124,20.19273204,-180.59402867999998,-69.95958372,5.82010582010582,set #1
1970-01-01 00:00:19.227329374,3.726228713989258,0.24006882309913635,1.7786333560943604,-220.35507078,-320.3155137,-577.6430852400001,-451.61161188,21.23941248,38.037207,-213.18808524,-33.92749620000001,6.084656084656085,set #1
1970-01-01 00:00:19.237337470,3.7284114360809326,0.24077603220939636,1.7754337787628174,-239.67279570000002,-330.577143,-520.7183748,-576.0911949,-23.4048399,20.6651601,-175.03974150000002,-23.061207,6.349206349206349,set #1
1970-01-01 00:00:19.248150468,3.730647563934326,0.24153342843055725,1.7719535827636719,73.90724952000001,-54.98044968000001,74.75408148,-114.61212048000002,85.07938296,-60.6650772,-159.54130452,11.51160036,6.613756613756613,set #1
1970-01-01 00:00:19.260655523,3.732969045639038,0.24229198694229126,1.7683429718017578,-6.3890981700000005,-103.91971083,-311.25857724,-457.70811372000003,19.652491949999998,-100.53326985,-214.2380955,50.316821880000006,6.878306878306878,set #1
1970-01-01 00:00:19.267618537,3.7352981567382812,0.24308720231056213,1.7646081447601318,52.51280229,-92.78213450999999,53.57287026,-127.98788457,75.76941450000001,-98.07417243,-283.88780706,-88.66920582,7.142857142857142,set #1
1970-01-01 00:00:19.277329564,3.7376503944396973,0.2439633011817932,1.760693907737732,35.96665644000001,-136.82193876,-175.75642344,-252.83748204000003,1987.18021008,-16.442195639999994,-247.76402664,-100.9558056,7.4074074074074066,set #1
1970-01-01 00:00:19.287212253,3.74001145362854,0.24495075643062592,1.7565875053405762,-64.93145996999999,-120.188601,-871.88847252,-834.7603212,956.9127867,575.0215563300001,-318.55400577,-93.15620301000001,7.671957671957672,set #1
1970-01-01 00:00:19.297957778,3.7425127029418945,0.24603530764579773,1.7523362636566162,-336.16617138000004,-371.50969829999997,-933.19290402,-999.3169695600001,-1635.60292038,666.6330629400001,-497.31414018,-279.12647957999997,7.936507936507936,set #1
1970-01-01 00:00:19.307834983,3.7450037002563477,0.247148334980011,1.7480299472808838,-201.51413451,-290.37044088000005,-971.24596647,-823.5749932800001,1253.54821137,-1441.6190291100002,-315.53382432,-239.24177979,8.201058201058201,set #1
1970-01-01 00:00:19.317605376,3.7474524974823,0.2483070194721222,1.7435719966888428,-229.79926944,-220.36800864,-605.2515081600001,-587.54046624,4089.9112176,398.64373536,-761.789496,108.51602112,8.465608465608465,set #1
1970-01-01 00:00:19.327530980,3.749971628189087,0.24949707090854645,1.7388561964035034,-248.6348202,-169.2909036,-135.859932,-265.9266168,2436.2983788,324.6362028,209.092806,-75.1879284,8.73015873015873,set #1
1970-01-01 00:00:19.337575793,3.7525136470794678,0.2508068084716797,1.7340971231460571,-294.61199079,-258.50215794,-790.52107914,-785.33740116,-203.87325192000003,-6.575501790000001,-240.21942282000003,95.05348047,8.994708994708994,set #1
1970-01-01 00:00:19.347208381,3.754993200302124,0.25209474563598633,1.7293171882629395,-217.13216538,-203.0592564,-741.49123893,-739.1859325500001,-194.94784803000002,-130.65965055,-218.05345185,-138.29666721,9.25925925925926,set #1
1970-01-01 00:00:19.357485652,3.757474184036255,0.25345927476882935,1.7242989540100098,28.428635040000003,-109.60728168,-185.86871316000003,-277.63792368,-281.69800464,-70.93268364,-326.21481203999997,64.19367552,9.523809523809524,set #1
1970-01-01 00:00:19.367398858,3.7599828243255615,0.2547999620437622,1.7191293239593506,288.3715965,48.43379814000001,104.74013472,3.2567901600000013,-333.21778152,-188.414538,167.5896222,49.4765544,9.788359788359788,set #1
1970-01-01 00:00:19.377364278,3.7625603675842285,0.2560954988002777,1.7139006853103638,456.23183112000004,291.37616274,197.39908344,9.212862360000017,7.19001582,-4.61859996,-95.7748428,222.06562092000001,10.052910052910052,set #1
1970-01-01 00:00:19.387501836,3.765148878097534,0.2574796676635742,1.7084999084472656,212.21656715999998,2.92285188,-165.8698158,-279.21565464,-41.174357640000004,-34.54793784,-236.3920338,120.03693936,10.317460317460316,set #1
1970-01-01 00:00:19.397265792,3.7677552700042725,0.2587960660457611,1.7029718160629272,-634.83093024,-476.60273856,-1211.4375936,-1091.54044896,-299.35285536000004,-151.97378976000002,-191.54003232000002,-174.42854208,10.582010582010582,set #1
1970-01-01 00:00:19.407128215,3.7704010009765625,0.2600454092025757,1.6973270177841187,-87.04538115,72.0249153,-29.0060472,-89.3660703,-334.29535035,21.36488835,151.2541992,203.1746535,10.846560846560847,set #1
1970-01-01 00:00:19.417578340,3.773076295852661,0.2613653838634491,1.691557765007019,-81.3984366,-22.9900944,137.0874258,-218.11013640000002,-221.63147759999998,55.5561318,167.6441754,48.350133,11.11111111111111,set #1
1970-01-01 00:00:19.427408338,3.7757728099823,0.2626354396343231,1.6856411695480347,-63.09235373999999,-98.52711648,-150.68923428,-205.34113236000002,-218.3352912,41.18052978,-68.74067538,79.14060258,11.375661375661375,set #1
1970-01-01 00:00:19.437578798,3.7784860134124756,0.26380655169487,1.679625391960144,60.004722959999995,-36.84217368,-303.36843497999996,-328.21547148,-424.15130394000005,-52.15165956,-67.8681393,-9.67701384,11.64021164021164,set #1
1970-01-01 00:00:19.447642207,3.781207799911499,0.2649666965007782,1.6734497547149658,21.33907854,-37.11632964,-166.07101719,-272.26060290000004,-322.77958245,-195.1672788,-215.19215211,71.63132964,11.904761904761903,set #1
1970-01-01 00:00:19.457334638,3.7839794158935547,0.26614776253700256,1.6671550273895264,-183.12027161999998,-221.54938962,-640.1468455199999,-634.3475985599999,-533.68218462,-277.14041394,-554.6509839,-149.14829046,12.16931216931217,set #1
1970-01-01 00:00:19.467230201,3.7867679595947266,0.26728639006614685,1.660732626914978,308.38879734,155.1519957,31.500655289999997,-109.44930398999999,1857.99570099,-339.9871059,-579.14239578,-59.439390270000004,12.433862433862434,set #1
1970-01-01 00:00:19.477694392,3.789527416229248,0.2684323787689209,1.6541804075241089,166.29457104,97.2321324,241.91230128,-42.91929408,-525.05760528,-137.2126548,-453.74202432,-4.188634320000002,12.698412698412698,set #1
1970-01-01 00:00:19.487295270,3.7922523021698,0.2696046829223633,1.6474741697311401,-300.7461717,-296.576553,-64.4610369,-265.73896049999996,-248.72439930000002,-275.1112728,-343.6745949,-29.7857157,12.962962962962962,set #1
1970-01-01 00:00:19.497520089,3.794912338256836,0.2708185911178589,1.6406995058059692,72.73157892,117.41878550999999,383.47371153,236.15293455,-346.69866933000003,-363.20228919,-52.49238813,129.09528138,13.227513227513226,set #1
1970-01-01 00:00:19.507666230,3.7974846363067627,0.272061824798584,1.6338682174682617,-273.184782,-166.620831,-404.7092439,-579.5522616000001,-18.806798399999998,-347.0244414,-343.7967507,-115.7039169,13.492063492063492,set #1
1970-01-01 00:00:19.517309785,3.8000268936157227,0.2732764482498169,1.626901388168335,-89.46452775,-79.2250173,-392.99079885,-385.73139150000003,-401.3308767,-333.96920115,-169.91071305,-13.2980757,13.756613756613756,set #1
1970-01-01 00:00:19.527239681,3.8025503158569336,0.27438899874687195,1.6197876930236816,-40.92749271,6.220434869999998,-472.0917006,-530.19676203,-423.58299711,-560.20280472,-290.21121402,-70.37944875000001,14.02116402116402,set #1
1970-01-01 00:00:19.537216783,3.805060863494873,0.27552297711372375,1.612574815750122,-564.92862309,-446.85133506,-820.1836835400001,-792.47730198,-366.33275289,-394.92409632,-284.33182596,-96.62318055,14.285714285714285,set #1
1970-01-01 00:00:19.547658086,3.807551145553589,0.27662956714630127,1.6052227020263672,12.10452828,36.41492166,-602.57149602,-594.32704734,-124.96334603999999,-293.06633850000003,-221.67779556,84.03779514,14.550264550264549,set #1
1970-01-01 00:00:19.557420373,3.809981346130371,0.2777036428451538,1.5977057218551636,-14.222129220000001,51.75221727,-512.0621652899999,-430.55943879,-537.5912189700001,-514.75887333,-269.17078188,-41.077854869999996,14.814814814814813,set #1
1970-01-01 00:00:19.567303777,3.8123250007629395,0.27882522344589233,1.5900342464447021,109.71808302,94.92592941000001,18.11767191,-19.320083250000003,-328.50260976000004,-359.33056848,-77.49124928999998,164.02186281000002,15.079365079365079,set #1
1970-01-01 00:00:19.577187419,3.814645290374756,0.2798546850681305,1.5822269916534424,-289.57045104,-199.94607165,-313.99704414,-317.90487846,-152.48595648,-323.77132437,-215.27823096,16.23583494,15.343915343915343,set #1
1970-01-01 00:00:19.587315679,3.816904067993164,0.2808391749858856,1.5743348598480225,-272.37869567999996,-86.92204482,-534.80782251,-676.3375203,-383.13778191,-436.16458898999997,-263.56647759,-62.96598165,15.608465608465607,set #1
1970-01-01 00:00:19.597386718,3.819063663482666,0.2818033695220947,1.5663424730300903,5.57121942,29.2088979,-400.61682102000003,-312.84703944,-403.7505966,-530.27203944,-160.55965926000002,11.2978008,15.873015873015872,set #1
1970-01-01 00:00:19.607244373,3.8211371898651123,0.28275761008262634,1.558220386505127,1.2584087099999994,18.84602889,-616.49218566,-509.89427658,-322.18827966000003,-516.88355316,-82.80853659,-15.04008051,16.137566137566136,set #1
1970-01-01 00:00:19.618451476,3.8230977058410645,0.2838303744792938,1.5500682592391968,33.92841816,163.1088654,-519.6880213200001,-396.63892008,-373.60683204,-641.16,-60.82352172,42.8194104,16.402116402116402,set #1
1970-01-01 00:00:19.627345920,3.824989080429077,0.2847985327243805,1.5418219566345215,-59.093112000000005,21.135004799999997,-659.4458208,-537.4452096,-376.4718672,-500.4707136,78.9832992,-137.2458048,16.666666666666664,set #1
1970-01-01 00:00:19.637270332,3.8267667293548584,0.28572750091552734,1.5335317850112915,125.9954826,130.66431612,188.76582192,99.94073700000001,3.39898728,-366.50104452,-22.2194856,109.12409352,16.93121693121693,set #1
1970-01-01 00:00:19.647287965,3.828394889831543,0.28667137026786804,1.525142788887024,59.02466505,75.23202375,-194.21829375000002,58.053590400000004,206.6542569,-295.76413815,156.09336015,53.24396025,17.195767195767196,set #1
1970-01-01 00:00:19.657496810,3.8300178050994873,0.28765612840652466,1.5167012214660645,-394.1876601,-302.3243223,-1120.5928422,-761.0302596,-34.6132839,-240.17530680000002,-316.4336682,-49.333432200000004,17.46031746031746,set #1
1970-01-01 00:00:19.667189241,3.8314855098724365,0.2885821759700775,1.5083295106887817,-119.70134514,-56.366809980000006,-27.062735700000005,190.85905683,-385.95782393999997,-219.47222544,100.84983441000001,131.55024987000002,17.724867724867725,set #1
1970-01-01 00:00:19.677512765,3.8328332901000977,0.2894444763660431,1.499976634979248,-299.86106085,-202.33701345,-1357.8082908000001,-891.00976185,-506.78264129999997,-244.25121240000001,-457.07173200000005,-126.13766295,17.989417989417987,set #1
1970-01-01 00:00:19.687250257,3.8340766429901123,0.29023146629333496,1.4915361404418945,-153.65358528000002,-142.1499885,-462.50511996,-132.66332157,-386.78019471,-201.44221656,-87.75120276,82.96899195,18.253968253968253,set #1
1970-01-01 00:00:19.697375894,3.83524227142334,0.29100972414016724,1.4830917119979858,-400.17388242,-325.25803284000006,-1001.09776182,-545.26922346,-476.81921742000003,-280.99221072,-374.27850486,-98.54612664,18.51851851851852,set #1
1970-01-01 00:00:19.707521558,3.836272716522217,0.2917836010456085,1.4746496677398682,-78.81525522000001,-24.93831054,-630.2063695200001,-238.9823904,-344.40716388000004,-144.1166571,-185.64296556,26.26480584,18.78306878306878,set #1
1970-01-01 00:00:19.717404485,3.837151527404785,0.2924182713031769,1.4661141633987427,-124.6529388,16.941030599999998,-647.4894114,-287.87604495,-305.2579218,-61.58340045,-179.1473502,-110.51738685,19.047619047619047,set #1
1970-01-01 00:00:19.727182985,3.837895631790161,0.29300060868263245,1.4574811458587646,52.72729995,17.984120700000002,-179.20034925000002,157.24508475,-18.2421135,131.803698,-71.0389173,87.40283565,19.31216931216931,set #1
1970-01-01 00:00:19.737311959,3.8385331630706787,0.2935742139816284,1.448803186416626,-158.30548617,-65.72881419000001,-322.63358478000004,-72.15324207,-45.93591483,637.90989639,-149.29635318,-10.049473979999998,19.576719576719576,set #1
1970-01-01 00:00:19.747387529,3.8390798568725586,0.29409417510032654,1.4401237964630127,-119.10796833,-22.71978501000001,-398.8659402,-23.08320456,-1069.03497168,883.1454535800001,-19.0613631,128.29568037,19.841269841269842,set #1
1970-01-01 00:00:19.757454753,3.8395426273345947,0.29452526569366455,1.4313807487487793,-142.25553576000001,-49.6323165,-596.62569213,-253.06742331,-344.81391438,1100.55774075,-109.51763394,99.96797616,20.105820105820104,set #1
1970-01-01 00:00:19.767010808,3.8399455547332764,0.29490333795547485,1.4225571155548096,-193.52380632,-164.35479528,-703.4236279200001,-369.3522924,-534.40447632,1262.4087216,-102.14558016000001,21.87973944,20.37037037037037,set #1
1970-01-01 00:00:19.777265430,3.8402843475341797,0.2951948642730713,1.4136309623718262,-67.1547123,-44.24823,-422.8442478,-206.0668584,-1039.4370129,1089.2869026,-98.9466816,-10.2722568,20.634920634920633,set #1
1970-01-01 00:00:19.787194371,3.8405420780181885,0.2954708933830261,1.4047107696533203,-269.9096868,-160.52463219,-943.0767957,-561.46503855,309.53167362,1167.85809348,-143.29825731,-50.50964022,20.8994708994709,set #1
1970-01-01 00:00:19.797049880,3.84065318107605,0.29561370611190796,1.3957674503326416,75.40777920000001,-12.9152556,-459.3061512,-106.5127128,-1001.0245752,846.3093600000001,-96.512364,-53.2650144,21.164021164021165,set #1
1970-01-01 00:00:19.807399869,3.8406805992126465,0.2956077456474304,1.3867769241333008,1.6503637799999993,-14.06551224,-535.7941266600001,-144.50569614,-1095.37288887,863.9862792600001,61.090144439999996,40.3767507,21.428571428571427,set #1
1970-01-01 00:00:19.817255378,3.840608835220337,0.2955644428730011,1.3778432607650757,-128.58146574,-162.39089411999998,-510.71314944,-163.546032,-893.02593198,419.99859876,-139.0684386,47.52031362,21.693121693121693,set #1
1970-01-01 00:00:19.826991439,3.8404717445373535,0.29540950059890747,1.3690004348754883,-101.8180605,-164.37768399,-822.08796228,-450.52551531,-28.902839159999985,469.3983879,-69.57827331000001,-126.40077722999999,21.957671957671955,set #1
1970-01-01 00:00:19.837381482,3.840240955352783,0.29520365595817566,1.3602004051208496,-39.348115560000004,-39.808899000000004,-652.99866606,-302.6616606,-115.20474342000001,49.32477888,-66.27977616,34.698424020000004,22.22222222222222,set #1
1970-01-01 00:00:19.847253680,3.839933395385742,0.294910728931427,1.3513668775558472,-85.2178704,-122.5260192,-535.1029632,-225.2163888,-1032.7729775999999,751.6136160000001,147.03152880000002,19.9359264,22.486772486772484,set #1
1970-01-01 00:00:19.857442260,3.8395094871520996,0.2945859730243683,1.3425623178482056,-75.9752604,-74.15415540000001,-742.8378906,-482.79989939999996,-3343.1619858000004,-637.978458,111.3296652,108.922593,22.75132275132275,set #1
1970-01-01 00:00:19.867550969,3.838959217071533,0.29431116580963135,1.3338769674301147,-165.87501138,-182.72074392,-391.49560476,-199.37805225,274.66951473,-316.62649044000005,218.78901759,70.13084325,23.015873015873016,set #1
1970-01-01 00:00:19.877320647,3.8382554054260254,0.29389530420303345,1.3251407146453857,-377.46099924000004,-324.74105157,-1394.14535754,-1081.43753172,1121.52181284,417.57849237,-87.46872537,-9.019353330000001,23.28042328042328,set #1
1970-01-01 00:00:19.887387157,3.8374156951904297,0.29347363114356995,1.316446304321289,-9.826554270000017,43.009200390000004,-321.03366828000003,84.03360381000002,162.20327253,105.87768516,336.15790221000003,83.41649901,23.544973544973544,set #1
1970-01-01 00:00:19.897304893,3.836459159851074,0.2930462658405304,1.3077424764633179,265.47919866,168.41249334,-306.59868252,63.02518677,121.132557,-163.15477425,201.17273241,213.8768346,23.809523809523807,set #1
1970-01-01 00:00:19.907559276,3.835406541824341,0.29253554344177246,1.2990678548812866,-12.10111812,-106.47105923999999,-736.09271268,-327.74153568,-984.78917628,-122.93223384000001,96.8320626,115.9773498,24.074074074074073,set #1
1970-01-01 00:00:19.917109847,3.8342294692993164,0.2919504940509796,1.2903764247894287,138.65968818,-224.45838753,-856.28493327,-484.4862594,-604.4736835799999,-341.81885829,-375.37362291,279.82645353,24.33862433862434,set #1
1970-01-01 00:00:19.927253843,3.832911729812622,0.291449636220932,1.2815746068954468,20.13304059,-125.3250492,-565.1040848700001,-95.36762976,671.25578598,-68.52593358,-12.558895440000015,398.08784378999997,24.6031746031746,set #1
1970-01-01 00:00:19.937284112,3.8314473628997803,0.2907525300979614,1.2725286483764648,-250.39894464,-286.88473008,-754.55011632,-330.62958864,434.9684352,-258.28169328,-736.0011984,171.20861472,24.867724867724867,set #1
1970-01-01 00:00:19.947380185,3.829822063446045,0.29024994373321533,1.2636102437973022,-233.43205079999998,-372.7097088,-780.5750511,-570.3292023,-338.89213215,-364.52867100000003,153.2045307,-421.91720805,25.13227513227513,set #1
1970-01-01 00:00:19.957308173,3.8280153274536133,0.2897394597530365,1.2546565532684326,-104.86199568,-190.53205977,-277.33406025,-111.91274795999999,-591.2928785400001,-419.41181061,-864.5932198800001,279.12805401,25.396825396825395,set #1
1970-01-01 00:00:19.967735410,3.8259873390197754,0.2893606424331665,1.245678424835205,-352.6629015,-427.3812738,-756.6284739,-575.8088778,-275.20343760000003,-172.5171864,-217.9498815,-313.7205708,25.66137566137566,set #1
1970-01-01 00:00:19.977404237,3.8237719535827637,0.2889620065689087,1.2366327047348022,217.36185860999998,-66.92664654000001,-256.95182916000005,-220.35759057,85.00381149,439.86579234000004,1.8624742500000053,-126.05463624000001,25.925925925925924,set #1
1970-01-01 00:00:19.987414241,3.8214216232299805,0.28860387206077576,1.2277064323425293,-112.13128641,-244.35141782999997,-663.5113941300001,-294.80618817000004,-368.23256807999996,871.6254647100001,75.00810798,-260.01220635000004,26.19047619047619,set #1
1970-01-01 00:00:19.997469068,3.8189148902893066,0.28823864459991455,1.218801736831665,97.90420536,73.67380956000001,-380.79666768,29.726901360000006,127.78270284000001,1740.9034936799999,278.73975948,-141.73873116000001,26.455026455026452,set #1
1970-01-01 00:00:20.007325530,3.8162574768066406,0.287747859954834,1.2096498012542725,83.7984927,5.7645588,-423.2902206,81.1036395,-98.54028209999998,1649.1658209,457.959918,-282.6497466,26.719576719576718,set #1
1970-01-01 00:00:20.017297387,3.8135015964508057,0.2869814932346344,1.200256586074829,-7.047983279999999,-60.49974138,-458.52903213,30.608527950000003,492.92044932,1606.24427769,29.332655429999996,-87.25145637,26.984126984126984,set #1
1970-01-01 00:00:20.027101398,3.8105390071868896,0.28630757331848145,1.1907496452331543,-32.42320926,-127.20956586,-520.11147786,-96.83876982000001,582.44053218,1956.25228422,-305.49280866000004,-35.165493479999995,27.248677248677247,set #1
1970-01-01 00:00:20.037286401,3.807325601577759,0.28543275594711304,1.1808806657791138,9.511881210000002,-61.918653809999995,-314.02928232,84.5067834,279.01043937,2139.50383647,315.77061555,-198.51535236,27.513227513227513,set #1
1970-01-01 00:00:20.048140407,3.8038852214813232,0.2846335768699646,1.1709669828414917,-71.65989207,-130.09572381,-712.30529838,-515.1293491499999,35.643619050000005,1802.5348762200001,-189.57888573,-226.6568889,27.777777777777775,set #1
1970-01-01 00:00:20.057610393,3.8002405166625977,0.28393352031707764,1.1610603332519531,-53.736617609999996,-147.06045042000002,-384.71514081000004,-135.70528374,455.64119094,1866.7511655,-40.31438502,-19.06200738,28.04232804232804,set #1
1970-01-01 00:00:20.067607999,3.7964119911193848,0.2831496596336365,1.151114821434021,64.08320997,22.336037490000002,-182.66968278000002,55.766948639999995,818.17940607,231.03859311000002,187.59934908,-54.07271766,28.306878306878307,set #1
1970-01-01 00:00:20.077429176,3.792428731918335,0.2824831008911133,1.1413795948028564,53.007427199999995,54.884902800000006,-298.77665064,-87.32368944000001,-2279.15917944,53.80452167999988,216.833058,53.35495152,28.57142857142857,set #1
1970-01-01 00:00:20.087360978,3.7882916927337646,0.2815268039703369,1.1314831972122192,-70.27796178,-112.49406012,-443.3776503,-312.0856284,1277.58684378,-456.65944038,-16.3465302,-69.09188520000001,28.835978835978835,set #1
1970-01-01 00:00:20.097334981,3.783994674682617,0.2804259955883026,1.1215355396270752,-12.08036115,-78.36879453,-512.64802992,-422.38112085,2445.8041900499998,48.20221809,42.80717181,14.96295021,29.100529100529098,set #1
1970-01-01 00:00:20.107227445,3.7796168327331543,0.2791406512260437,1.1115367412567139,212.47962840000002,110.1485385,-62.3164698,110.2144758,3043.99980495,-1091.84121345,249.05373674999998,32.412432,29.365079365079364,set #1
1970-01-01 00:00:20.117323518,3.7749738693237305,0.2776153087615967,1.1015279293060303,55.288431120000006,-39.378364739999995,-378.63235332,-222.40244754,3328.62514062,-1083.73127694,57.239339040000004,-93.54242898000001,29.629629629629626,set #1
1970-01-01 00:00:20.127448917,3.7702479362487793,0.2761406898498535,1.0915802717208862,13.010017409999996,-106.52498259000001,-457.62037074,-419.94313374,5009.29198185,-293.8093821,-131.28336663,-138.59973543,29.894179894179892,set #1
1970-01-01 00:00:20.138394952,3.7654261589050293,0.2743707597255707,1.0815935134887695,-50.705821920000005,-132.51300192,-428.14471752,-390.35221992,4843.21811688,-1796.7159912,15.832708319999995,-193.1385924,30.158730158730158,set #1
1970-01-01 00:00:20.147423387,3.7605340480804443,0.27280470728874207,1.0718809366226196,-77.18853948,-164.07047904,-704.8919720700001,-625.38543717,3928.73898651,-1535.24282301,-194.27504655,-190.34044652999998,30.42328042328042,set #1
1970-01-01 00:00:20.157749772,3.755660057067871,0.2706873416900635,1.0623804330825806,-17.38292088,-104.44802004,-534.07214484,-565.67512716,4439.21572536,-2669.57098512,-4.335882719999994,-138.56377236,30.687830687830687,set #1
1970-01-01 00:00:20.167627454,3.75065541267395,0.268938809633255,1.0530658960342407,131.41492728,94.59049313999999,-58.9584879,-19.91643732,2749.54569864,-2481.17653212,177.67969440000002,-43.5002529,30.95238095238095,set #1
1970-01-01 00:00:20.177331090,3.7455947399139404,0.2669551372528076,1.043850302696228,-152.636211,-180.758721,-374.35594560000004,-436.8065871,3623.3642718,-2924.9348973,146.9911443,-49.1079888,31.216931216931215,set #1
1970-01-01 00:00:20.187688232,3.7402501106262207,0.26482725143432617,1.0346850156784058,23.2737336,29.67893448,-242.21958072,-272.29786896,2362.1544148800003,-2632.86031008,76.62814848000001,2.99862888,31.48148148148148,set #1
1970-01-01 00:00:20.197408796,3.7349228858947754,0.2624814510345459,1.0256229639053345,-76.1872176,-56.377917960000005,-350.5973484,-364.42449108,2227.1186230800004,-2583.61081212,76.41146136,62.564491079999996,31.746031746031743,set #1
1970-01-01 00:00:20.207457423,3.7294704914093018,0.26028457283973694,1.0167531967163086,-111.80994084,-39.6352515,-364.33876478999997,-322.37203401,1748.66342469,-2233.2212795100004,107.93889054,49.85740383,32.010582010582006,set #1
1970-01-01 00:00:20.217432380,3.7239084243774414,0.2579037547111511,1.0078399181365967,-188.8190772,-122.27539739999999,-484.4695128,-398.9930646,1186.9579098000002,-2055.2495262,127.72348680000002,-8.162115,32.27513227513227,set #1
1970-01-01 00:00:20.227443338,3.718222141265869,0.25563040375709534,0.9991100430488586,-139.34169444,-59.11486542,-477.17933094,-476.20072031999996,889.4532543,-2139.3321456,179.660091,-5.539148939999999,32.53968253968254,set #1
1970-01-01 00:00:20.237513900,3.712449073791504,0.25339382886886597,0.9905945658683777,-178.12142400000002,-87.251424,-420.45237000000003,-264.582474,294.61649100000005,-2383.468737,159.131934,60.315099000000004,32.804232804232804,set #1
1970-01-01 00:00:20.247333408,3.7066922187805176,0.2513188421726227,0.9824368953704834,-126.74973792,-49.5947088,-415.09369824000004,-279.05277504000003,-292.17628128,-2507.759904,187.45621440000002,-14.955620160000006,33.06878306878307,set #1
1970-01-01 00:00:20.257212997,3.700817823410034,0.24910372495651245,0.9743499159812927,-118.62756243,-25.00221828,-411.04592724,-267.54071682,41.677161240000004,-2740.0062428700003,206.27266763999998,-51.86439726,33.33333333333333,set #1
1970-01-01 00:00:20.267555595,3.6949214935302734,0.24707183241844177,0.9665442109107971,-174.33207675,-53.236799850000004,-589.9665739500001,-570.2971325999999,302.98594365,-2908.59859485,-81.18421545000001,-157.1067537,33.597883597883595,set #1
1970-01-01 00:00:20.277237535,3.688922166824341,0.24495813250541687,0.9589166641235352,30.7802859,97.9094454,102.66373064999999,202.56206685,81.79600065,-3212.13700665,218.6203461,41.70487425,33.86243386243386,set #1
1970-01-01 00:00:20.287372232,3.682725191116333,0.2430047243833542,0.9514413475990295,20.908524,107.90875056,-14.915684160000001,190.49971512000002,-93.047214,-3475.52118888,328.0551144,37.939939439999996,34.12698412698413,set #1
1970-01-01 00:00:20.297380805,3.676302433013916,0.24112452566623688,0.9440361261367798,-220.80459765,-61.0983906,-527.11156095,-347.3801175,-128.5170705,-3030.97435095,-37.041550650000005,-47.96396475,34.39153439153439,set #1
1970-01-01 00:00:20.307312846,3.669718027114868,0.23924954235553741,0.9367222785949707,-57.03372168,89.67279126,-296.84441748,-65.06672562,-527.9334512400001,-2736.1756461,-118.02056058000001,12.758147219999998,34.65608465608465,set #1
1970-01-01 00:00:20.317384124,3.663095474243164,0.23736067116260529,0.9296525716781616,-18.3517074,94.11810096,-251.13402444,-124.8711672,-1106.73423276,-2766.44294472,-24.07360644,9.93005208,34.92063492063492,set #1
1970-01-01 00:00:20.327438236,3.65664005279541,0.23548969626426697,0.9229373931884766,-95.73122208000001,106.69485216000001,-336.14100936000006,-246.749607,-837.59496756,-1838.4886338000001,-552.44212296,312.09649224000003,35.18518518518518,set #1
1970-01-01 00:00:20.337350488,3.6503496170043945,0.23367048799991608,0.9164937734603882,-70.9723872,84.26387736000001,-288.23007096000003,-40.81071696,-597.0202711200001,-1034.70841344,-337.5083244,184.2840012,35.44973544973545,set #1
1970-01-01 00:00:20.347085595,3.644226551055908,0.2316991239786148,0.9102932214736938,-159.037359,36.999112800000006,-530.7509181,-272.22,-489.7512516,-284.9735694,-193.36346445,-49.1599485,35.714285714285715,set #1
1970-01-01 00:00:20.357373119,3.638232946395874,0.22963139414787292,0.9043565988540649,-124.06441593000001,85.29596049,-166.04690154,47.31470601,-185.66187276,265.14931482,201.45100404000002,-147.23340255000002,35.978835978835974,set #1
1970-01-01 00:00:20.367203593,3.6322576999664307,0.22731995582580566,0.8985600471496582,-16.16631237,140.16763683000002,-76.63266858,108.34994859,-155.57147112,696.76069398,205.31514666,-68.09236317,36.24338624338624,set #1
1970-01-01 00:00:20.377488733,3.6262128353118896,0.22483649849891663,0.8928942680358887,-57.06469392,153.47984067,-89.47531866000001,-98.39532495,-270.32703984000005,523.4668050299999,80.60588679,-96.07016562000001,36.507936507936506,set #1
1970-01-01 00:00:20.387733579,3.620084285736084,0.22242885828018188,0.8874273300170898,-79.02910782000001,152.40177849,-81.85726341,-83.599581,-142.49401842,752.5008145200001,-15.23561676,9.98055084,36.77248677248677,set #1
1970-01-01 00:00:20.398099065,3.6137638092041016,0.2198415845632553,0.8820348978042603,-71.48590605,132.80776275,-127.9936242,-134.73406050000003,-163.36042515,1077.5113089,72.6544299,64.12148730000001,37.03703703703704,set #1
1970-01-01 00:00:20.407533050,3.607442617416382,0.21747609972953796,0.8767087459564209,-85.5339225,96.230199,-215.687862,-212.119674,-164.6914035,1280.3200995,25.117989,18.447663,37.3015873015873,set #1
1970-01-01 00:00:20.417240501,3.6010472774505615,0.21514804661273956,0.8716063499450684,-78.19500000000001,114.57361383,-236.41173192,-182.29805178,-169.82513262,1407.6578560199998,0.009933689999999995,59.144437950000004,37.56613756613756,set #1
1970-01-01 00:00:20.427333713,3.5947256088256836,0.21289290487766266,0.8668375611305237,-90.94284771,95.80185614999999,-238.99404282,-213.58363298999998,-423.71412486,1777.7510364900002,36.560502420000006,-12.48977262,37.83068783068783,set #1
1970-01-01 00:00:20.437573076,3.5885372161865234,0.2107895165681839,0.8622769713401794,-101.98050252,97.25699568,-246.70354644,-242.33103024,1179.75198276,2268.39897336,108.19806192,-100.80458388,38.095238095238095,set #1
1970-01-01 00:00:20.447466493,3.5823757648468018,0.2088199108839035,0.8578577637672424,-155.68739043,23.36079681,-252.33101595,-273.56786847,87.79035876,2415.6348804900003,-10.852350209999983,-75.33940245000001,38.35978835978836,set #1
1970-01-01 00:00:20.457335830,3.57641863822937,0.20696192979812622,0.8535378575325012,-188.9208984,-8.999686800000003,-360.71858160000005,-392.8383186,-252.65526,2554.1041578,-229.0139319,-11.3596587,38.62433862433862,set #1
1970-01-01 00:00:20.467628598,3.5704309940338135,0.20503759384155273,0.8493238687515259,-161.92749222,21.09403998,-457.1354034,-597.24570984,-352.10300814,2775.7303064400003,-203.1878238,-149.48298300000002,38.888888888888886,set #1
1970-01-01 00:00:20.476944089,3.5644283294677734,0.20296502113342285,0.8451523780822754,39.751360739999996,143.52065169,330.01848789,243.32821382999998,-296.54580306,2926.97804334,419.60512269,-123.52156947,39.15343915343915,set #1
1970-01-01 00:00:20.487247825,3.5578744411468506,0.20039421319961548,0.8408744931221008,81.403218,258.6599145,260.94737175,243.84505275,-498.77781525,2921.21192025,333.3449145,-57.57245325,39.41798941798942,set #1
1970-01-01 00:00:20.497503400,3.5514397621154785,0.19794082641601562,0.8369501233100891,-41.527044,138.62776200000002,0.827736,-0.49881,-223.12110600000003,2921.788428,264.32718,-33.68196,39.682539682539684,set #1
1970-01-01 00:00:20.507740617,3.5452213287353516,0.1957193911075592,0.833108127117157,-10.20326268,137.60282835,-33.58000347,-30.581816070000002,-220.92557448,2789.3291244,72.92919621,49.74776001,39.94708994708994,set #1
1970-01-01 00:00:20.517427802,3.5390660762786865,0.19366337358951569,0.8294430375099182,-54.09862146,69.77134008,-82.58417544000001,-95.98916262,-261.0726417,2673.04529622,19.33105668,32.10103104,40.21164021164021,set #1
1970-01-01 00:00:20.527342201,3.533052682876587,0.1917223036289215,0.825965940952301,-57.84095499,64.50704637000001,-127.28028651000001,-191.40203277,-231.03633696,2542.2633288,148.26836973000002,-58.58087313,40.476190476190474,set #1
1970-01-01 00:00:20.537475944,3.5272116661071777,0.18995289504528046,0.8225631713867188,-72.06152616,50.21820024,-84.41825496000001,-146.44832592,-297.44328744,2407.77223752,127.93876368000001,-31.55520264,40.74074074074074,set #1
1970-01-01 00:00:20.547312618,3.521501302719116,0.18839600682258606,0.8191929459571838,-63.61295148000001,56.576814060000004,-112.17126492,-182.85858084,-345.41550186,2423.3876573400003,98.67331344,24.4297326,41.00529100529101,set #1
1970-01-01 00:00:20.557497859,3.5161828994750977,0.18710783123970032,0.8157191872596741,-60.43914513,52.675049699999995,-57.316640160000006,-171.96745527000002,-389.78746521,2606.51072565,184.69171968,-31.344900600000003,41.269841269841265,set #1
1970-01-01 00:00:20.567630887,3.5102949142456055,0.18514913320541382,0.8127833008766174,-54.07928604,78.61660755,16.31058663,-133.65979536,-249.74288313,2738.60242383,210.60574352999998,23.46428604,41.53439153439153,set #1
1970-01-01 00:00:20.577435374,3.5042967796325684,0.1834748536348343,0.809816300868988,-71.74541400000001,68.91723696,3.8442783600000006,-153.53664456,-184.82817132,2836.78571592,178.39447392,-42.33091434,41.7989417989418,set #1
1970-01-01 00:00:20.587352395,3.4984078407287598,0.18172477185726166,0.8068802952766418,-19.48703835,112.0192086,-16.398681,-132.0129018,-130.4374695,2765.3302638,67.30664265,56.66875305,42.06349206349206,set #1
1970-01-01 00:00:20.597498536,3.4927523136138916,0.1799648553133011,0.8040453195571899,-50.657178,97.14254472,-99.2464356,-173.52031008,-12.48,2711.08271616,47.6142576,107.17234944,42.32804232804233,set #1
1970-01-01 00:00:20.607655406,3.487234592437744,0.17839494347572327,0.8013642430305481,-52.26264186,89.89764186000001,-94.37735814,-160.28207442000001,-61.85190024,2654.12127474,-19.966425179999998,102.79136712,42.59259259259259,set #1
1970-01-01 00:00:20.617411733,3.4817216396331787,0.17704461514949799,0.7987537980079651,-79.64060325,88.15091415,-75.12117912000001,-107.10159954000001,27.05692899,2493.3266728500003,41.90127981,9.533171700000002,42.857142857142854,set #1
1970-01-01 00:00:20.627448917,3.476389169692993,0.17599338293075562,0.7962453365325928,-73.75526457000001,103.72007762999999,-112.51802757,-157.96027884,140.31305925,2836.7608744800004,79.95725127,0.4787721900000008,43.12169312169312,set #1
1970-01-01 00:00:20.637651801,3.4712600708007812,0.17523300647735596,0.7938446998596191,-12.36460641,91.8660717,-83.94800076000001,-73.14941673,132.70870353,2305.0635593700003,-84.49420239,-9.9028566,43.386243386243386,set #1
1970-01-01 00:00:20.647287488,3.4662442207336426,0.17474815249443054,0.7915138602256775,-62.14651872,69.96104544,-218.88237696000002,-184.7866176,-32.3701872,1806.6025536,-320.34067104,-37.3906416,43.650793650793645,set #1
1970-01-01 00:00:20.657565713,3.461395263671875,0.17456765472888947,0.7892888188362122,-29.387119319999996,62.413336830000006,-67.85006319,-55.14385617,-164.06081406,1272.68593686,-205.50663860999998,-26.464386,43.91534391534391,set #1
1970-01-01 00:00:20.667461515,3.4566547870635986,0.17467577755451202,0.7871522903442383,9.4656588,105.9154941,14.05548495,-15.988691550000002,-112.31976209999999,1084.36629015,-220.9354758,-31.079094149999996,44.17989417989418,set #1
1970-01-01 00:00:20.677101970,3.4520206451416016,0.1750553846359253,0.7851254343986511,12.292683,90.9418536,-11.9772432,-85.769268,-197.355366,499.8107556,-348.50634,-51.0872934,44.44444444444444,set #1
1970-01-01 00:00:20.687422395,3.4474661350250244,0.17567093670368195,0.783253014087677,-12.22835055,52.7031921,-54.87930825,-100.71813764999999,-180.5851047,156.1759563,-118.3394667,-144.6765957,44.70899470899471,set #1
1970-01-01 00:00:20.697533488,3.4429807662963867,0.17656493186950684,0.7815090417861938,6.333231840000001,53.08099056,-27.83004432,-101.20409520000001,-217.86271728,-260.36327616,-153.37578048,-187.73496144,44.97354497354497,set #1
1970-01-01 00:00:20.707267642,3.438660144805908,0.17779269814491272,0.7799456119537354,-12.909939900000001,54.892667700000004,-70.57154052,-175.14087786000002,-178.9183734,-555.09955254,-335.56512912,-81.93087786,45.238095238095234,set #1
1970-01-01 00:00:20.717288137,3.434474468231201,0.1792525053024292,0.7785874605178833,4.875064739999999,67.19905218,-52.16743623,-120.93965168999999,-208.25993526,-600.1339550700001,-188.13202512,-146.62683672,45.5026455026455,set #1
1970-01-01 00:00:20.727690816,3.4303970336914062,0.18091069161891937,0.7774384617805481,57.981855360000004,95.20138367999999,41.9588208,-33.67849056,-286.30338048,-737.34116352,49.89132096,-125.27476416,45.767195767195766,set #1
1970-01-01 00:00:20.737351775,3.426339626312256,0.18272258341312408,0.7764209508895874,-34.00165275,31.73573325,27.227538000000003,-52.47127275,-367.02542175,-751.02357525,107.75318775,-97.7434575,46.03174603174603,set #1
1970-01-01 00:00:20.747814536,3.422372817993164,0.18472820520401,0.7755637764930725,-98.67293592,-18.49959072,-58.370017680000004,-171.84779352,-323.93898576,-916.0562455200001,81.60432383999999,-89.93850528,46.29629629629629,set #1
1970-01-01 00:00:20.757507920,3.4186129570007324,0.18689224123954773,0.7749411463737488,-54.8197104,32.8186872,25.1673552,-71.159556,-388.8794208,-1110.5431271999998,144.19806960000003,-16.8842856,46.56084656084656,set #1
1970-01-01 00:00:20.767458081,3.414971351623535,0.18896183371543884,0.7745051383972168,-78.85819929000002,18.13145724,-74.77973217,-173.61203534999999,-379.28898657,-1288.5798911699999,62.68482402,-106.03095477,46.82539682539682,set #1
1970-01-01 00:00:20.777504325,3.411457061767578,0.1908113658428192,0.7741349935531616,-7.114458000000001,87.68084325,-7.25716875,-86.096205,-355.7440965,-1525.4249399999999,48.077289,-84.21807225,47.08994708994709,set #1
1970-01-01 00:00:20.787512660,3.408064603805542,0.19240745902061462,0.7738115787506104,-70.6590144,20.5738572,-20.951268,-116.38027439999999,-418.7883258,-1726.5991236,13.0107978,-75.2747736,47.354497354497354,set #1
1970-01-01 00:00:20.797665000,3.404816150665283,0.19373007118701935,0.7735476493835449,-21.200400000000002,76.87485,49.5339,-35.959950000000006,-415.4982,-1916.22405,32.75805,-23.6613,47.61904761904761,set #1
1970-01-01 00:00:20.807295680,3.401639223098755,0.1947692632675171,0.7732435464859009,-5.883009599999999,74.9228064,-30.4154448,-87.8899008,-423.396792,-2085.3759888,-86.01833760000001,54.503592,47.88359788359788,set #1
1970-01-01 00:00:20.817240119,3.3985390663146973,0.19575391709804535,0.7730267643928528,-33.17312154,48.83941998,-41.99436462,-128.00709948,-370.10651925,-2222.6539225799997,-90.79483413,-10.58204433,48.148148148148145,set #1
1970-01-01 00:00:20.827551484,3.3956851959228516,0.19663922488689423,0.7728317975997925,-74.00196648,30.873663600000004,-90.90944615999999,-202.26602136,-371.9364558,-2340.63944868,-24.79865856,-162.97098324,48.41269841269841,set #1
1970-01-01 00:00:20.837389589,3.3930490016937256,0.1974954903125763,0.7726836204528809,-16.53258204,62.38952811,182.22477741,127.29813915,-365.03818494,-2391.63685449,121.61108114999999,45.865602900000006,48.67724867724868,set #1
1970-01-01 00:00:20.847982764,3.3905327320098877,0.1983025074005127,0.7725614905357361,2.488067400000002,90.21105756,9.003427680000001,-32.376965399999996,-338.19043752,-2445.7705428000004,27.118626600000006,5.823416039999998,48.941798941798936,set #1
1970-01-01 00:00:20.857552886,3.388152837753296,0.1991102248430252,0.7724573016166687,-60.136846379999994,33.38065146,24.34317522,-83.33242008,-357.28496544,-2475.7893615000003,68.4431709,-51.082402800000004,49.2063492063492,set #1
1970-01-01 00:00:20.867987275,3.3859503269195557,0.19992293417453766,0.7723568081855774,-96.70947000000001,-6.4974585000000005,50.6772435,0.6515729999999991,-349.4534355,-2484.11988825,82.11981375,-22.816452750000003,49.47089947089947,set #1
1970-01-01 00:00:20.877405524,3.383894920349121,0.2008572518825531,0.7722920775413513,35.723556959999996,113.09718108,118.92050352000001,27.790872720000003,-386.26610724,-2459.64724824,119.48114100000001,-9.18936252,49.735449735449734,set #1
1970-01-01 00:00:20.887400985,3.3816609382629395,0.20127707719802856,0.7728824019432068,-70.29279855,12.224854199999998,-31.034815500000008,-123.9802668,-406.980366,-2472.3200853,3.6602202000000013,-72.15232245,50.0,set #1
1970-01-01 00:00:20.897422195,3.3803181648254395,0.20258671045303345,0.7726647257804871,-143.4990765,-53.412592350000004,-29.677204049999993,-85.55963715000001,-382.15224839999996,-2512.9520637,26.77425465,48.77938845,50.26455026455026,set #1
1970-01-01 00:00:20.907507062,3.3789286613464355,0.2038497030735016,0.772672176361084,-102.02795304,-66.88113197999999,-333.09799146,-459.49764354,-348.98389968000004,-2492.9923746000004,-212.05313376,-127.59719388,50.529100529100525,set #1
1970-01-01 00:00:20.917352319,3.3777482509613037,0.20501334965229034,0.7726353406906128,434.48126436,428.23222026,597.58932324,544.9837497,-392.15737509,-2159.23261788,363.51935256,243.66273515999998,50.79365079365079,set #1
1970-01-01 00:00:20.927448631,3.3767802715301514,0.20608103275299072,0.7726932168006897,30.06600207,56.73559515,136.74437439,52.5457647,-369.14695155000004,-1790.0171702399998,17.21471349,98.51648859,51.05820105820106,set #1
1970-01-01 00:00:20.937526107,3.37603759765625,0.20710796117782593,0.7728057503700256,-18.02584446,57.59497575,-57.288771540000006,-121.86586386,-391.80835472999996,-1139.92283379,49.81663557,84.75527502,51.32275132275132,set #1
1970-01-01 00:00:20.947450042,3.3755223751068115,0.20808270573616028,0.7729187607765198,174.34899222,234.35037756000003,273.07727928,201.02518878,-395.5575819,-453.74273178,175.77522768,144.16459746,51.58730158730158,set #1
1970-01-01 00:00:20.957897783,3.3751113414764404,0.2089773267507553,0.7730579376220703,-141.27078615,-74.51930577,-153.89249382,-203.73372084000002,-401.51796945,85.89556755000001,13.78879905,8.3244759,51.85185185185185,set #1
1970-01-01 00:00:20.967534662,3.3750500679016113,0.20963087677955627,0.7731980681419373,5.04060024,41.05747308,167.8149096,53.013982320000004,-432.08721816,568.4520363600001,104.13676416,47.94803676,52.116402116402114,set #1
1970-01-01 00:00:20.977309823,3.3753204345703125,0.2103653848171234,0.7734137773513794,-44.18693136,12.85229439,-126.7848582,-267.06502836,-403.04139252,838.97152014,15.38239365,-2.5394526299999995,52.38095238095238,set #1
1970-01-01 00:00:20.987470746,3.3757011890411377,0.21081727743148804,0.7736110687255859,104.54301156,139.31110284,44.10765528,-78.12311754,-406.61949354,1090.00027656,19.66096626000001,62.05478370000001,52.645502645502646,set #1
1970-01-01 00:00:20.997494817,3.376457452774048,0.21131180226802826,0.7738338708877563,-153.38212383,-106.54371780000001,-167.02915398000002,-294.51885099000003,-424.87265807999995,1186.60532055,-131.18553864,-113.36776932000001,52.910052910052904,set #1
1970-01-01 00:00:21.007424712,3.3774702548980713,0.21161775290966034,0.7741206884384155,82.29604344,107.46382608,-142.28298552,-345.56331888,-389.60015952,1223.6182608000001,-39.7318116,5.110594320000001,53.17460317460317,set #1
1970-01-01 00:00:21.017364383,3.3788983821868896,0.2118539810180664,0.7744073867797852,231.57882891,230.17109466,338.19523569,241.00562616000002,-374.20124976,1212.93312504,151.60531308,90.27648513,53.439153439153436,set #1
1970-01-01 00:00:21.027716756,3.3805665969848633,0.21203958988189697,0.7747695446014404,-77.72046516,-95.59511676,-42.26047644,-184.80395856,-410.12650848,1070.17244256,35.29965348,13.73918832,53.7037037037037,set #1
1970-01-01 00:00:21.037287832,3.3825716972351074,0.21219271421432495,0.7750641703605652,-83.83265592,-50.40370608,93.99397488,17.19986736,-435.59013264000004,947.34529032,38.90448744,33.34439784,53.96825396825397,set #1
1970-01-01 00:00:21.047388196,3.3849117755889893,0.21236753463745117,0.7755088210105896,50.2409466,-6.48589968,31.61918448,-67.56189804,-374.51265696,791.4432427200001,65.73428316,50.862254039999996,54.23280423280423,set #1
1970-01-01 00:00:21.057442785,3.387671709060669,0.21253864467144012,0.7760765552520752,-105.99943965,-130.27837485,-91.74885135,-172.72528845,-314.1071817,527.05784625,-1.1476023000000026,-1.1194637999999983,54.49735449735449,set #1
1970-01-01 00:00:21.067530990,3.3908557891845703,0.21288107335567474,0.7767559289932251,156.4237428,74.7324513,143.67387449999998,20.1937749,-272.45288070000004,271.7518869,103.3121193,86.7733776,54.76190476190476,set #1
1970-01-01 00:00:21.077168584,3.3944225311279297,0.2133263647556305,0.777529239654541,110.3536044,88.46580288000001,287.29781184,228.9532908,-196.05559272,-13.28847,65.7477912,137.72228808,55.026455026455025,set #1
1970-01-01 00:00:21.087242007,3.3985092639923096,0.21387962996959686,0.7784887552261353,189.31815045,40.12185294,438.78654261,350.28580392000003,-168.72401169,-235.65524736,11.615492459999999,225.94802451,55.29100529100529,set #1
1970-01-01 00:00:21.097521663,3.4029672145843506,0.21447235345840454,0.7796497344970703,-108.2186001,-121.13792574,-27.96445158,-168.51652584,-119.72931711,-396.82636578,-197.59849122,-15.99708279,55.55555555555555,set #1
1970-01-01 00:00:21.107349277,3.407900333404541,0.21512721478939056,0.7809612154960632,170.37230184,83.74653456,35.551381320000004,-64.73740065,-136.82059131,-424.82300835,-215.06634591,49.681400339999996,55.820105820105816,set #1
1970-01-01 00:00:21.118172765,3.413206100463867,0.21594469249248505,0.7824418544769287,61.52797950000001,-143.4756453,75.58548660000001,-148.9578597,-227.00456805000002,-466.50421545,-500.9344041,-65.75067525000001,56.08465608465608,set #1
1970-01-01 00:00:21.127405286,3.418921947479248,0.21688127517700195,0.7842050194740295,56.211568920000005,-44.94875424,339.31378416,63.26509176000001,-275.76950778,-434.32512318,-485.9726157,34.63787652,56.34920634920635,set #1
1970-01-01 00:00:21.137377382,3.424933433532715,0.21780464053153992,0.7861602306365967,337.13593446000004,222.82554528,518.8840238399999,318.1913787,-679.38743184,-549.79692612,-284.93295947999997,114.62429861999999,56.613756613756614,set #1
1970-01-01 00:00:21.148245454,3.4313082695007324,0.21886688470840454,0.7883289456367493,30.650470499999997,-131.33780712,178.75123266,-121.37510112,-295.73346816000003,-741.40063764,-526.3227528,-130.75281882000002,56.87830687830687,set #1
1970-01-01 00:00:21.157445550,3.438080310821533,0.22007575631141663,0.7907248139381409,-202.3252725,-261.29816700000003,10.733950499999999,-183.325116,-123.86013899999999,-739.438167,-469.880151,-288.80847450000005,57.14285714285714,set #1
1970-01-01 00:00:21.167943835,3.4451301097869873,0.22140176594257355,0.7933605313301086,-215.84044365,-346.42096515000003,-34.6496787,-114.33040905000001,-363.95710455,-1006.0626693,-597.06219105,-193.35033119999997,57.407407407407405,set #1
1970-01-01 00:00:21.177497030,3.4524784088134766,0.22282575070858002,0.7962729930877686,113.5162938,-49.2449997,238.94420939999998,144.6121053,-308.8792473,-1378.1221623,-649.2693246000001,59.6708697,57.67195767195767,set #1
1970-01-01 00:00:21.187394977,3.4601213932037354,0.2244163155555725,0.7994282245635986,119.91074901,-87.9645897,-24.34205631,-256.75178919,-169.66426542000002,-1688.85849717,-473.93731436999997,-142.42297680000001,57.93650793650794,set #1
1970-01-01 00:00:21.197340369,3.4680421352386475,0.22607168555259705,0.8027846813201904,148.89097626,19.2298782,374.32237479,275.63847285,178.86335415,-1943.31902622,243.36486642,-132.65566587,58.201058201058196,set #1
1970-01-01 00:00:21.207548261,3.4761738777160645,0.2277599573135376,0.8063797950744629,-149.96094165000002,-329.85488172,-31.45214943,-43.15809108,-182.65532922000003,-2861.5390412700003,-14.82746616,-148.15999146,58.46560846560846,set #1
1970-01-01 00:00:21.217918277,3.484593152999878,0.2295992076396942,0.8102988004684448,101.02993719,-56.15717718,-367.05359301,-483.00040659,-376.17839025,-3669.36430146,-90.19755069000001,-282.86304540000003,58.73015873015873,set #1
1970-01-01 00:00:21.227346301,3.4930965900421143,0.23141461610794067,0.814401388168335,188.78661399,25.06172877,431.58101805,360.66717999,-283.7031132,-3600.0708467100003,-28.969678529999996,246.83517924,58.99470899470899,set #1
1970-01-01 00:00:21.237526059,3.5017285346984863,0.23343519866466522,0.8187376260757446,108.16596882,-16.807451309999998,792.84327252,745.35794034,-82.57646709,-3431.2803291,438.60516608999995,128.51706582000003,59.25925925925925,set #1
1970-01-01 00:00:21.247489810,3.5104761123657227,0.2355644702911377,0.823337733745575,-250.03162469999998,-275.6786058,-99.9449412,-99.1318029,15.289482000000001,-3177.7756374,137.70071639999998,-142.9847796,59.52380952380952,set #1
1970-01-01 00:00:21.257320047,3.519338846206665,0.23783105611801147,0.8282822370529175,187.71894258000003,80.6573157,405.72622857,447.55450389,-22.52535519,-2736.79824561,242.18041224,121.38852219,59.788359788359784,set #1
1970-01-01 00:00:21.267370105,3.5281646251678467,0.24014706909656525,0.833407998085022,172.16021159999997,92.35195125000001,456.35212740000003,298.16764575,840.1913091,-2508.7610457,695.9194203000001,-108.39988575,60.05291005291005,set #1
1970-01-01 00:00:21.277729392,3.5370938777923584,0.24267913401126862,0.8388813138008118,199.98082416,19.015151999999997,532.87418496,290.89671311999996,1847.70879072,-2300.50024464,381.2922048,-96.86939808,60.317460317460316,set #1
1970-01-01 00:00:21.287556052,3.545924425125122,0.24526171386241913,0.8446216583251953,38.29381608,-150.78268296000002,399.07042656000004,91.54196375999999,1014.13860444,-1984.15652292,-216.24802992,-142.15040736,60.582010582010575,set #1
1970-01-01 00:00:21.297638059,3.554725170135498,0.24798333644866943,0.8507532477378845,416.41817646,195.94301298,305.30164743,175.02583722,-540.36106683,-1896.5612796,221.22599772,-176.64803403,60.84656084656084,set #1
1970-01-01 00:00:21.307467580,3.5633206367492676,0.25064441561698914,0.8571038842201233,-53.1479208,-215.88245640000002,-306.5706306,-906.3197832,-1277.8013508,-1690.0270686000001,162.9658758,-492.2640606,61.11111111111111,set #1
1970-01-01 00:00:21.317632079,3.5718514919281006,0.253465861082077,0.8636987805366516,115.67103288000001,-99.38432399999999,305.16330039,425.6703243,-1906.6030542,-893.96798127,-341.15082963,-13.587664740000001,61.37566137566137,set #1
1970-01-01 00:00:21.327561021,3.580322504043579,0.2562818229198456,0.8706508278846741,470.52411315,369.58794482999997,1085.7214797000001,779.9978760600001,-1118.99306064,-115.36181358,313.27421541,160.59046068,61.64021164021164,set #1
1970-01-01 00:00:21.337452531,3.5887765884399414,0.2591770887374878,0.877960205078125,-642.86921283,-653.5979790600001,-776.24433705,-694.7516210699999,-411.84376623,560.7669190500001,-365.50892742,-366.57657153,61.9047619047619,set #1
1970-01-01 00:00:21.347394586,3.5971033573150635,0.26226750016212463,0.8855422139167786,409.5689325,258.1489482,256.16839404,293.37104238,-193.79944584,1172.08438932,508.86430140000004,-270.96591678,62.169312169312164,set #1
1970-01-01 00:00:21.357422948,3.6053099632263184,0.2654394209384918,0.893330454826355,240.79627416,100.67358132,374.7374592,200.08213524,5.267279160000001,1492.0567038000002,1.9480562399999997,-165.96065304,62.43386243386243,set #1
1970-01-01 00:00:21.367751956,3.613386869430542,0.26868119835853577,0.9013849496841431,296.53149552,261.50291544000004,848.28537768,562.86912396,403.4170998,2133.7052568,564.5283384,-90.6902568,62.698412698412696,set #1
1970-01-01 00:00:21.377697826,3.621370792388916,0.27192988991737366,0.9097290635108948,-25.90787472,-18.62759574,-0.38153700000000157,-165.56435454,385.50567666,2279.59068792,264.09527118,-356.03356698,62.96296296296296,set #1
1970-01-01 00:00:21.387416482,3.629225730895996,0.27518558502197266,0.9182659387588501,129.95259185999998,115.52518458,248.07160170000003,236.13549336,1.055700360000003,2499.5035182,-77.87214162000001,95.22082284,63.22751322751322,set #1
1970-01-01 00:00:21.397360206,3.6369898319244385,0.2784765362739563,0.926987886428833,-56.67477894,-176.94427842,389.50092245999997,281.99742402,46.65115728,2702.42473644,351.78368861999996,-90.46594049999999,63.49206349206349,set #1
1970-01-01 00:00:21.407423854,3.6446099281311035,0.28170260787010193,0.9358918070793152,211.38241566000002,66.21438408,271.52299433999997,112.18816596,356.45364456,2877.7939437,43.61044038,-11.780616899999998,63.75661375661375,set #1
1970-01-01 00:00:21.417986989,3.6521077156066895,0.28491318225860596,0.9450688362121582,-131.62788132,-50.63547489,-27.001305240000008,-218.45290389,55.63806846,3094.61593662,101.33766786000001,72.61832331,64.02116402116401,set #1
1970-01-01 00:00:21.427332998,3.6592347621917725,0.2878584861755371,0.954298198223114,387.54699906,371.32982718,653.11816674,757.3776436200001,88.4303433,3248.2519313400003,203.19823914,119.75432508,64.28571428571428,set #1
1970-01-01 00:00:21.437922597,3.6662588119506836,0.2909674048423767,0.9637688994407654,-323.50157814000005,-163.91976003,-433.72794192000003,-314.25476082,143.49783474,3366.87585507,-114.3804831,-47.98189968,64.55026455026454,set #1
1970-01-01 00:00:21.447785259,3.673114061355591,0.2939873933792114,0.9733622074127197,-431.34481416,-373.22984244,136.46519795999998,159.97489092,449.1401616,3423.8126434200003,158.97643281,72.64503636,64.81481481481481,set #1
1970-01-01 00:00:21.458058715,3.679959774017334,0.297502338886261,0.9832993149757385,216.08751254999999,-49.25593335,-229.25879535,-229.252023,655.8780345,3483.6646299000004,31.64083455,-163.84651725,65.07936507936508,set #1
1970-01-01 00:00:21.468272805,3.686516284942627,0.30058345198631287,0.9932818412780762,356.8064214,-412.1326092,-624.71473545,-578.07149205,650.3870334000001,3494.6638174500004,-11.510335200000004,-381.67003095,65.34391534391534,set #1
1970-01-01 00:00:21.477834583,3.6929032802581787,0.3034757375717163,1.003304362297058,1348.6033536300001,527.07933135,433.31647398,226.77474144,704.1709584,3518.59900743,91.45792422,-6.662526,65.60846560846561,set #1
1970-01-01 00:00:21.487299085,3.6991560459136963,0.30637127161026,1.0135557651519775,1274.6082453000001,439.35395985,1176.7535637,1022.48276715,866.2247178,3551.8484274,310.2453003,103.55682285,65.87301587301587,set #1
1970-01-01 00:00:21.497738004,3.705174207687378,0.3088133931159973,1.0238633155822754,516.7200121200001,-88.58727852000001,-104.1382524,-570.02320752,988.18179876,3321.99342384,-317.98924872,-107.15568395999999,66.13756613756614,set #1
1970-01-01 00:00:21.507447839,3.7110540866851807,0.31120020151138306,1.0343412160873413,-432.95491706999996,-536.03378244,-752.57879385,-1000.14596877,1281.96632382,3296.37822696,-519.48377052,-290.23816769999996,66.4021164021164,set #1
1970-01-01 00:00:21.517650724,3.716808795928955,0.31364706158638,1.0449601411819458,608.32025436,230.63802528,701.31095424,348.99857616,121.81784316,3022.3886815200003,166.62155328,97.69268964,66.66666666666666,set #1
1970-01-01 00:00:21.528385282,3.7226061820983887,0.3164641261100769,1.0560053586959839,302.96847204000005,-97.35134682,566.38197408,290.35322706,434.22787824,2182.02548304,56.832817860000006,175.14798054,66.93121693121692,set #1
1970-01-01 00:00:21.537470222,3.7282965183258057,0.3188219964504242,1.0671839714050293,565.33245834,167.32447134,598.4107662,401.50721988,595.8440896200001,2024.4241212,139.90041468,150.29833806,67.19576719576719,set #1
1970-01-01 00:00:21.547408223,3.7335362434387207,0.32154548168182373,1.0785270929336548,83.26067918999999,-105.54454482,285.51098160000004,138.30315798,330.23721549000004,1783.80216573,100.70335352999999,112.76843174999999,67.46031746031746,set #1
1970-01-01 00:00:21.557500243,3.738647937774658,0.3234948515892029,1.0893738269805908,505.95468065999995,122.9966673,449.60195514000003,309.59546163000005,-672.0787011900001,1687.50952968,380.8094121,283.11299055,67.72486772486772,set #1
1970-01-01 00:00:21.567541003,3.7436816692352295,0.3255065679550171,1.1005222797393799,137.4784437,200.71619646,274.83919866,208.38113244000002,-945.5009382,1371.6495585,151.55848344,146.59777703999998,67.98941798941799,set #1
1970-01-01 00:00:21.577422977,3.7485713958740234,0.3272678554058075,1.1117855310440063,-20.972997240000005,291.48265341,313.98568617,337.44113013,-863.96508978,1118.013897,-69.35992206,89.30898678,68.25396825396825,set #1
1970-01-01 00:00:21.587691903,3.753255844116211,0.32882505655288696,1.123044490814209,423.81537237,682.2473736,276.03534777000004,288.80035392,-1008.8744253899999,1049.83120593,-164.7489519,135.96789765,68.51851851851852,set #1
1970-01-01 00:00:21.597639919,3.757732629776001,0.33029669523239136,1.1343023777008057,-47.02708452,317.15270418,154.38767721000002,132.50599206,-1074.69561966,1071.50172636,-59.36428368000001,-169.00083096,68.78306878306879,set #1
1970-01-01 00:00:21.607289434,3.7620131969451904,0.33165204524993896,1.1455166339874268,-201.45870108,80.10040116,178.10047709999998,20.55327846,-1220.7301704000001,924.29072736,-205.29659592,-76.17701364,69.04761904761904,set #1
1970-01-01 00:00:21.617381931,3.7659904956817627,0.3327418267726898,1.1565392017364502,-570.7766543700001,-171.45097905,-136.83209513999992,-231.70666623,-1157.21891883,831.03276321,-545.3014362900001,-261.8290506,69.3121693121693,set #1
1970-01-01 00:00:21.627596975,3.769806385040283,0.3337078392505646,1.167555570602417,-323.287809,6.296199000000002,70.723926,-105.97348125,-854.3605687500001,1045.4289495,-142.81148700000003,-28.78124925,69.57671957671957,set #1
1970-01-01 00:00:21.637555957,3.773608922958374,0.3347988724708557,1.178844928741455,-1303.1652730199999,-834.0839403,-679.92334566,-928.78984497,-268.54249422,914.6387367,-331.44930819,-216.03394956,69.84126984126983,set #1
1970-01-01 00:00:21.647613883,3.777175188064575,0.33564844727516174,1.1898193359375,-1216.98862701,-537.6699705,-1039.08005916,-1251.63558078,-308.34070370999996,711.2538287400001,-579.89487699,-398.28262305000004,70.1058201058201,set #1
1970-01-01 00:00:21.657516837,3.78057599067688,0.3361641764640808,1.20061457157135,-256.36250406000005,191.40323124,440.77000812,155.34371502,-497.77789502999997,808.7672525400001,-8.87947515,220.31576268,70.37037037037037,set #1
1970-01-01 00:00:21.668275953,3.783735513687134,0.3365024924278259,1.2112129926681519,59.132594819999994,354.46460556,177.48731052,-110.05007676000001,-501.65173539,459.73084910999995,-113.43006402,27.32459145,70.63492063492063,set #1
1970-01-01 00:00:21.677307964,3.7866647243499756,0.3364567458629608,1.2214072942733765,-486.54779471999996,-145.29503976,38.21349012,-283.10780784,-305.26755636,504.40563576,-172.6180794,52.888834440000004,70.8994708994709,set #1
1970-01-01 00:00:21.687571883,3.7893996238708496,0.3364075720310211,1.2314420938491821,-413.80189188,-21.708497459999997,-5.5746186600000005,-226.50663828,-146.86923732000002,470.09315223,-99.42370541999999,4.21160064,71.16402116402116,set #1
1970-01-01 00:00:21.697515607,3.7921342849731445,0.336102694272995,1.241353154182434,-105.81692276999999,194.9774502,493.22532363,169.74399663,-62.86980141,522.64238247,-107.67854213999999,262.74976494000003,71.42857142857143,set #1
1970-01-01 00:00:21.707424522,3.7945826053619385,0.3356989920139313,1.2510324716567993,-1619.09709702,-1007.25624324,-1488.14775096,-1800.3233274,-35.88477048,607.49787462,-377.95565262,-430.21500132,71.69312169312168,set #1
1970-01-01 00:00:21.717928529,3.7968173027038574,0.3352223038673401,1.2604515552520752,-1509.7035107699999,-1159.06621623,-1355.77913679,-1451.7156618899999,-1529.16934911,247.79682291,-868.2859707599999,-270.62598732000004,71.95767195767195,set #1
1970-01-01 00:00:21.727357507,3.798896551132202,0.3346090614795685,1.269637107849121,133.29793697999997,257.7977571,-53.373181290000005,-300.72300141,-547.48499364,547.91565426,-66.61672952999999,-35.802655200000004,72.22222222222221,set #1
1970-01-01 00:00:21.737590909,3.80072283744812,0.33409175276756287,1.2787302732467651,408.79090356,453.00272355,1071.80863179,651.56590083,-391.66638303,540.3272741100001,182.92772004,181.40317338,72.48677248677248,set #1
1970-01-01 00:00:21.747502446,3.80239200592041,0.3333992660045624,1.287584662437439,-959.9352188400001,-634.1920556399999,-8.94406734,-350.45926266,538.43124972,776.43427524,388.04094498,-63.416488980000004,72.75132275132275,set #1
1970-01-01 00:00:21.757383704,3.80391263961792,0.3326488435268402,1.2962377071380615,-474.22918296,-181.36633944000002,-340.48200264,-686.32278936,313.60336800000005,210.15341568,-312.38935416000004,-29.553264,73.01587301587301,set #1
1970-01-01 00:00:21.767727971,3.8052897453308105,0.33195382356643677,1.304724097251892,-270.55973178,-74.55935331,442.23100310999996,29.498465880000005,591.02702646,421.91047860000003,205.93797354,50.67383061,73.28042328042328,set #1
1970-01-01 00:00:21.777257562,3.8066036701202393,0.3310531973838806,1.3131077289581299,-535.86548886,-253.56358716,516.63875016,13.227199439999993,-40.36075055999999,211.72747206,-80.7278199,91.05520632,73.54497354497354,set #1
1970-01-01 00:00:21.787241340,3.8078012466430664,0.33014342188835144,1.3214224576950073,120.40671240000002,338.88990720000004,1060.8436254,477.8548632,-978.9432120000001,664.6839108,311.5664448,180.3088716,73.80952380952381,set #1
1970-01-01 00:00:21.797342897,3.808910608291626,0.329120397567749,1.329511046409607,315.56000775,411.48446586,709.75069893,351.82716972000003,-1014.52212576,-563.54398737,36.52529985,167.87219475,74.07407407407408,set #1
1970-01-01 00:00:21.807710529,3.809933662414551,0.3281278908252716,1.3374786376953125,261.78299862,500.2884705,1001.22411246,580.77292728,-2622.4419670800003,102.56053976999999,373.71262071,275.93527572,74.33862433862433,set #1
1970-01-01 00:00:21.817070604,3.810865640640259,0.3270387351512909,1.3453363180160522,-852.0364397999999,-465.92590824,391.02167052000004,-147.11839428000002,-1264.78145664,560.2554204,-18.47507376,61.4221062,74.6031746031746,set #1
1970-01-01 00:00:21.827527404,3.8117098808288574,0.32585829496383667,1.3531029224395752,-73.55192676,145.93558044,455.81368248,62.72779344,-371.30009436,-167.27595144,38.9072034,57.65645028,74.86772486772486,set #1
1970-01-01 00:00:21.837617994,3.8124468326568604,0.32468271255493164,1.3607537746429443,-574.6143819,-181.03994922,78.74031126,-376.87345254,-342.53677926,-403.02758495999996,-418.05928475999997,-54.11105076,75.13227513227513,set #1
1970-01-01 00:00:21.847491384,3.813096046447754,0.3235282003879547,1.3682386875152588,-525.3839760000001,-259.25601936000004,-301.70383776,-415.49668368,639.5059132800001,8.287022640000004,-117.15708264,21.642276240000008,75.39682539682539,set #1
1970-01-01 00:00:21.857293010,3.813694953918457,0.32233926653862,1.375727653503418,-168.3285708,-61.921548000000016,690.2399556,374.43731909999997,477.6295485,-347.315865,80.49137460000003,212.9958519,75.66137566137566,set #1
1970-01-01 00:00:21.868146062,3.8142056465148926,0.32115063071250916,1.3831722736358643,-40.1844183,282.29289816000005,979.5068946,765.0902945400001,20.146129379999998,252.14217288,96.57944789999999,160.91408969999998,75.92592592592592,set #1
1970-01-01 00:00:21.877380967,3.8146138191223145,0.31998908519744873,1.3904348611831665,-240.08019867000002,206.67375066,655.39763406,292.90182285000003,479.6169417,46.16941524,-10.664958330000005,165.20582598,76.19047619047619,set #1
1970-01-01 00:00:21.887806535,3.81492018699646,0.3189094662666321,1.3976699113845825,172.80016455,359.40324810000004,951.11749005,609.3304386,188.16225674999998,-743.04323535,-129.03920835000002,357.95509425,76.45502645502646,set #1
1970-01-01 00:00:21.897704482,3.815150499343872,0.3178083598613739,1.4048147201538086,-408.84341862,-39.86519238,-262.78772988,-409.05303192,147.9995556,-611.23977876,-43.677735659999996,125.75978454,76.71957671957672,set #1
1970-01-01 00:00:21.907392860,3.815293550491333,0.31669512391090393,1.4120393991470337,344.3980644,518.268309,921.3755304,775.3201872000001,714.0483558,-909.7306140000001,210.7397448,370.1383452,76.98412698412697,set #1
1970-01-01 00:00:21.917899251,3.8153276443481445,0.3156297504901886,1.4192399978637695,-302.10932583,-47.97188877,53.664149370000004,-150.46608291,428.52236700000003,-2023.71438165,-192.23245391999998,247.09816443,77.24867724867724,set #1
1970-01-01 00:00:21.927471996,3.8152782917022705,0.3146331310272217,1.4264411926269531,184.40343948000003,169.73595132,580.92344388,225.12013056,4.911720840000001,-1670.71631376,-426.2223576,-67.98988872,77.5132275132275,set #1
1970-01-01 00:00:21.937755466,3.8151824474334717,0.313597708940506,1.4337377548217773,84.9347304,68.83342830000001,147.0766635,-131.82852696,522.9711396,-1322.14711512,-258.67232352,132.40140498,77.77777777777777,set #1
1970-01-01 00:00:21.947345853,3.8150041103363037,0.31257909536361694,1.441057562828064,493.02345729,350.5559577,1635.02335113,1188.1382876999999,267.87353814,-1077.80954892,94.50081341999999,355.22588556,78.04232804232804,set #1
1970-01-01 00:00:21.957220197,3.814739942550659,0.31151214241981506,1.448320746421814,-67.62965469,-121.99527054,180.8303055,-136.48560315,149.00132559,-1001.01127308,-254.62043763,52.67631603,78.3068783068783,set #1
1970-01-01 00:00:21.968215823,3.8144044876098633,0.3104991912841797,1.4555736780166626,-348.47285694,-235.30547313,201.7683252,-175.59864270000003,10.018829730000002,-828.3784996500001,-281.54511722999996,-4.129985340000005,78.57142857142857,set #1
1970-01-01 00:00:21.977368236,3.814011573791504,0.30945834517478943,1.4628403186798096,126.50658852,69.99784272,-186.14869572,-266.817174,262.31720736,-479.18749164,-61.869966600000005,80.82550164,78.83597883597884,set #1
1970-01-01 00:00:21.987200856,3.8135159015655518,0.3084070086479187,1.4701037406921387,151.45180752,242.83681968,597.7734828,213.09684552,176.57497415999998,-171.62486016,149.90176344,169.61834448000002,79.1005291005291,set #1
1970-01-01 00:00:21.998212695,3.812922239303589,0.3073786795139313,1.4772660732269287,581.96246745,521.6462511,360.35261535,126.03513975,101.1172656,138.1008252,161.70797174999998,254.72427240000002,79.36507936507937,set #1
1970-01-01 00:00:22.007380128,3.8122637271881104,0.30635786056518555,1.4843987226486206,471.94214496000006,226.30143744,1058.27162688,643.2536448000001,79.2037584,197.66424288,81.91571232,156.4424784,79.62962962962962,set #1
1970-01-01 00:00:22.017363429,3.8115427494049072,0.305387407541275,1.491525650024414,-41.12461860000002,91.65829880999999,6.0038869799999475,-209.99435963999997,-83.43038457,351.89215542,-97.02430686,125.21353455,79.89417989417989,set #1
1970-01-01 00:00:22.027519107,3.810767650604248,0.30433669686317444,1.4986082315444946,542.67025332,387.17453931,1030.41082677,685.36530777,2.13629325,245.97830244,108.74309121,68.055,80.15873015873015,set #1
1970-01-01 00:00:22.037446380,3.8099119663238525,0.3033076524734497,1.505594253540039,350.75628120000005,241.2530094,1073.8057746,763.0965732,-108.6328308,112.5902622,118.7219904,156.88604880000003,80.42328042328042,set #1
1970-01-01 00:00:22.047100187,3.8090178966522217,0.30230826139450073,1.5124711990356445,-399.04528404,-258.22678596,62.54019174,-168.06921495,-83.69480223,24.21214458,-368.29514202,-239.04702705,80.68783068783068,set #1
1970-01-01 00:00:22.057784200,3.808093309402466,0.3013162314891815,1.5193288326263428,-1305.5281200000002,-974.866698,-1236.0533639999999,-1407.777306,56.482764,34.389498,-532.10547,-387.060414,80.95238095238095,set #1
1970-01-01 00:00:22.067918897,3.8070666790008545,0.300218403339386,1.5264558792114258,-46.94692236,-111.50852817,796.11446421,534.8122501800001,154.79346714,171.29935524,26.572664040000006,-125.20613157000001,81.21693121693121,set #1
1970-01-01 00:00:22.077183843,3.8060638904571533,0.29912129044532776,1.5332211256027222,156.70374564,54.911022270000004,921.57610467,675.50892435,-79.81580529,261.75249594,68.20539336,-46.58776863,81.48148148148148,set #1
1970-01-01 00:00:22.087972999,3.805063009262085,0.29802489280700684,1.5398603677749634,168.12780972000002,102.43179765000001,-286.98299292,-440.66274641999996,-74.36551316999999,338.16046446,-292.0590309,-251.84690934000002,81.74603174603175,set #1
1970-01-01 00:00:22.097497583,3.804046154022217,0.2969263195991516,1.5464451313018799,-313.25327202000005,-306.41614224,-133.21970025000002,-140.9172024,-788.6594106299999,460.34559090000005,-152.96270262000002,-86.19270348,82.01058201058201,set #1
1970-01-01 00:00:22.107169986,3.8029747009277344,0.2958575487136841,1.552870750427246,-178.39344666,-177.11245968,212.70992418000003,88.36233510000001,422.9738721,758.3328519,-75.8344899,-186.65690082,82.27513227513226,set #1
1970-01-01 00:00:22.117451787,3.801837205886841,0.29472148418426514,1.5591083765029907,148.84982853,12.69169824,328.12737438,237.26934855,113.82606962999999,818.12715387,217.02999513,325.37899251,82.53968253968253,set #1
1970-01-01 00:00:22.127805591,3.8006277084350586,0.2936093509197235,1.565228819847107,-694.56355878,-527.38782603,-1792.9054338,-1467.33851472,471.96466824,433.45602495,-393.06768150000005,-131.90742279,82.8042328042328,set #1
1970-01-01 00:00:22.137542606,3.7993929386138916,0.29251372814178467,1.5712463855743408,179.30215758,183.41280594,911.77833864,600.55789482,242.58439608,531.82706928,38.95349874,-56.942016300000006,83.06878306878306,set #1
1970-01-01 00:00:22.147953391,3.7981112003326416,0.2914118468761444,1.577191948890686,-87.09223614,-166.32999357000003,-433.00590684,-508.23291246,96.37299438,384.18140241000003,-198.26052129,-94.34701848,83.33333333333333,set #1
1970-01-01 00:00:22.157359720,3.7967944145202637,0.29040563106536865,1.5829099416732788,-358.4250072,-297.6593568,779.3951724,243.29658600000002,161.82227880000002,299.7896616,64.35326040000001,121.80790439999998,83.5978835978836,set #1
1970-01-01 00:00:22.167673469,3.7954587936401367,0.2894388735294342,1.5884768962860107,-62.15725503,-66.61836402,349.95702845999995,23.84948669999997,182.46028359,303.21701904,-8.942214840000005,-4.317896309999998,83.86243386243386,set #1
1970-01-01 00:00:22.177654386,3.7941174507141113,0.28850892186164856,1.5939326286315918,733.04741796,349.40852622,1050.09003606,501.82188576000004,178.24300182000002,281.91047274,181.27883748,63.75678504,84.12698412698413,set #1
1970-01-01 00:00:22.187394500,3.792738199234009,0.2875720262527466,1.59931218624115,240.47790000000003,-78.91533000000001,552.18189,271.74420000000003,178.84464,265.78870500000005,356.89719,323.02803,84.39153439153439,set #1
1970-01-01 00:00:22.197302222,3.791368246078491,0.28660812973976135,1.604502558708191,446.4763797,151.15884342,454.24860624,293.94387048,12.75644682,140.79952458,187.38459714,107.7223251,84.65608465608466,set #1
1970-01-01 00:00:22.207476974,3.7899892330169678,0.28571051359176636,1.6095422506332397,-615.2084055,-235.22650008,-857.89113462,-753.2735878200001,-127.13745564000001,-25.14985512,-352.93464024,-359.61081312,84.92063492063491,set #1
1970-01-01 00:00:22.217703462,3.788604259490967,0.2847878932952881,1.614565372467041,120.35518014000002,-60.349729440000004,969.88694946,636.14223816,-953.48537856,275.67535944,164.43402534,33.512220299999996,85.18518518518518,set #1
1970-01-01 00:00:22.227311731,3.787224054336548,0.28379619121551514,1.6194989681243896,688.8889546500001,221.482599,-196.38971157000003,-216.02427054,966.15965628,39.96878964,-45.70003815000001,29.283624630000006,85.44973544973544,set #1
1970-01-01 00:00:22.237423301,3.7858145236968994,0.28276342153549194,1.6242607831954956,1864.4718779700002,1263.2751366300001,3204.75456366,2220.55096068,-597.00180228,-200.8613607,567.90549972,358.42438827,85.71428571428571,set #1
1970-01-01 00:00:22.247564912,3.7844014167785645,0.28166189789772034,1.6289525032043457,601.99302384,490.69730112,720.5255054400001,255.9630528,-248.70982656,1021.67414544,331.60126272,95.40833952000001,85.97883597883597,set #1
1970-01-01 00:00:22.257591605,3.7829768657684326,0.28051304817199707,1.6336301565170288,-473.3060007,-529.6910541,-1054.2077676,-862.27656645,1472.0956497000002,-341.88570195,-187.71832560000001,109.35111330000001,86.24338624338624,set #1
1970-01-01 00:00:22.268395782,3.7815420627593994,0.2793014347553253,1.638317346572876,382.85998686,439.37126376000003,316.80722034,173.69132508,-3631.4833308,-1458.97103352,103.52758884,128.39513388,86.5079365079365,set #1
1970-01-01 00:00:22.278170943,3.780076742172241,0.2780451774597168,1.6429473161697388,121.21910346,-272.94470541,1280.7424617,803.3145564600001,-1992.67040856,-2624.5861613399998,320.59663467,178.00283904,86.77248677248677,set #1
1970-01-01 00:00:22.287531495,3.7785918712615967,0.2767893373966217,1.647491455078125,187.8109896,237.813966,532.5540675,226.51461494999998,-1899.86976465,-1451.56903515,172.58570160000002,8.564659350000001,87.03703703703704,set #1
1970-01-01 00:00:22.297375798,3.777125358581543,0.2754860818386078,1.6520696878433228,611.4119364600001,491.72730984,1398.86619444,1353.91467198,-2462.87478606,-1659.48847974,439.85402136,80.69231898000001,87.30158730158729,set #1
1970-01-01 00:00:22.312369704,3.7756400108337402,0.2740911543369293,1.6566498279571533,-725.05561128,-315.78863784,-405.85170288,-492.24473688,-2380.41049584,-1559.096526,115.37979024000002,-198.21823632000002,87.56613756613756,set #1
1970-01-01 00:00:22.317868591,3.7740890979766846,0.2726481556892395,1.6611956357955933,-230.7651372,-6.297622499999996,480.7272795,329.95480596000004,-1712.6948451599999,-1447.50373677,147.41614563,57.14744022000001,87.83068783068782,set #1
1970-01-01 00:00:22.327104688,3.7725439071655273,0.2711663842201233,1.6656262874603271,360.11243423999997,472.57388256,701.36972256,687.58080768,-1494.88161264,-1295.3179824000001,480.3184152,182.43093024,88.09523809523809,set #1
1970-01-01 00:00:22.337559819,3.7710185050964355,0.26964637637138367,1.6700409650802612,-189.96483597,46.55128218,-76.30016628,-164.57001327,1697.76419514,-1718.22967719,-188.79254082,63.461330010000005,88.35978835978835,set #1
1970-01-01 00:00:22.347341895,3.769501209259033,0.26806408166885376,1.6744332313537598,-481.9865778,-262.169934,-19.288530300000005,-19.238444549999993,-335.48971365,-807.0384367500001,-80.5759578,6.72327045,88.62433862433862,set #1
1970-01-01 00:00:22.357150913,3.7680022716522217,0.2664908170700073,1.678683876991272,-467.00635917,-309.19669209,-522.82809384,-373.47380343,-1800.89642421,-2069.11274466,-389.26126278000004,-240.08542427999998,88.88888888888889,set #1
1970-01-01 00:00:22.367463470,3.7664666175842285,0.26498448848724365,1.682830810546875,64.297467,29.8091625,748.2682545,489.45700050000005,-1089.2843013,-1501.1073441,37.691877599999984,-183.9545175,89.15343915343915,set #1
1970-01-01 00:00:22.377381206,3.764925956726074,0.2634446620941162,1.6870018243789673,95.03188577999998,-158.41344012,-145.84159277999996,-46.437922439999966,326.5213224,-1626.37952802,-207.73798266,-89.71591278,89.41798941798942,set #1
1970-01-01 00:00:22.387506604,3.763396978378296,0.26190686225891113,1.6911066770553589,990.2610229200001,876.4403076,1148.4229613999998,1175.08204164,-927.7253544,-1457.95209612,531.7955120400001,390.12764076,89.68253968253968,set #1
1970-01-01 00:00:22.397811294,3.761836290359497,0.2602919042110443,1.6951534748077393,19.170311940000005,86.90879886,454.55108322,439.43559582,-59.72809986,-1262.2731802199999,283.33610604,141.09887922,89.94708994708994,set #1
1970-01-01 00:00:22.407472730,3.760260820388794,0.258745402097702,1.6991055011749268,39.663187199999996,104.1549522,321.5793672,375.091119,-266.90877720000003,-1141.9164354,186.06541199999998,-18.135175499999995,90.2116402116402,set #1
1970-01-01 00:00:22.417542100,3.7586658000946045,0.25721824169158936,1.703086018562317,-4.642326,70.744635,471.807102,471.408405,-355.32042,-855.107838,349.504428,228.518082,90.47619047619047,set #1
1970-01-01 00:00:22.427527786,3.757098913192749,0.2556413412094116,1.7070218324661255,57.76467372,231.22717332,564.4137486,479.44989378,-171.7292304,-724.89114438,403.85520162,210.7399515,90.74074074074073,set #1
1970-01-01 00:00:22.437803388,3.755481719970703,0.254061222076416,1.7108879089355469,318.10565436,217.53590664,-328.63003212,23.576796360000003,101.1125076,-686.8957056,-146.67503604,-145.28881068,91.005291005291,set #1
1970-01-01 00:00:22.447897792,3.7538349628448486,0.2524191737174988,1.7146968841552734,163.47292416,211.12639392,407.55751296,450.58389792,50.0793072,-458.59694399999995,510.68417088,39.86153184,91.26984126984127,set #1
1970-01-01 00:00:22.457282663,3.7522451877593994,0.2508745789527893,1.7184346914291382,161.02396596,93.27810140999999,472.72510896,514.3271870100001,-350.56737573,-553.03422447,251.00708802000003,73.20138227999999,91.53439153439153,set #1
1970-01-01 00:00:22.467882514,3.750653028488159,0.24939309060573578,1.7221707105636597,-457.8259023,-249.06186318,-445.72083192,-170.00473776,-65.9728563,-422.61824592,237.03377256000002,-26.089422839999997,91.7989417989418,set #1
1970-01-01 00:00:22.477165580,3.749021291732788,0.24796728789806366,1.7258254289627075,-256.4804112,-222.6897348,-1044.9083736,-607.2785238,6.684880799999998,-435.1169394,-203.74803540000002,-221.2438956,92.06349206349206,set #1
1970-01-01 00:00:22.487967849,3.747351884841919,0.24669165909290314,1.7293568849563599,79.89470619000001,67.60060593,239.14131072,341.11769445,-76.29729978,-209.4018888,321.97226138999997,-25.27128864,92.32804232804233,set #1
1970-01-01 00:00:22.497464299,3.7456860542297363,0.245437890291214,1.7328627109527588,676.47001149,244.71281757,1000.02954441,1128.8844426599999,-427.92405435,-262.3252573500001,532.7949681599999,245.37903663,92.59259259259258,set #1
1970-01-01 00:00:22.507626653,3.743995428085327,0.24426482617855072,1.7363377809524536,-536.09444031,-311.1644289,-844.85698089,-413.65524993,-430.6099746,-361.40880204,29.60669673,-260.73363069,92.85714285714285,set #1
1970-01-01 00:00:22.517715335,3.7422778606414795,0.2430942803621292,1.7397600412368774,348.3781548,319.41950235,547.7281719,754.61960925,-311.6739288,-244.0332414,392.20375935,34.89479955,93.12169312169311,set #1
1970-01-01 00:00:22.527392984,3.740598440170288,0.24200671911239624,1.7429980039596558,368.1165228,237.56211960000002,568.87283232,854.8992160800001,280.05844464,-239.06168832,682.6672881600001,367.36181352,93.38624338624338,set #1
1970-01-01 00:00:22.537446380,3.7389960289001465,0.24095970392227173,1.746180534362793,-9.121054799999998,95.1678546,-490.43328360000004,-158.29234200000002,288.238236,-169.08899280000003,704.4172590000001,-336.6497082,93.65079365079364,set #1
1970-01-01 00:00:22.547991395,3.737431287765503,0.23998896777629852,1.7493306398391724,278.8694571,11.627071950000001,-402.99204075,40.18926404999999,415.9625262,393.43352295,454.9035699,42.35104379999999,93.91534391534391,set #1
1970-01-01 00:00:22.557359815,3.7358222007751465,0.23918521404266357,1.7523633241653442,180.14108190000002,155.95222305,-160.76945820000003,244.96249050000003,716.4317238,50.65647015,208.8410727,-7.0219636500000036,94.17989417989418,set #1
1970-01-01 00:00:22.567950845,3.7341694831848145,0.23843547701835632,1.7553213834762573,-86.5287969,42.38328315,-4.647930300000006,294.95293230000004,262.46280645,9.81080685,297.07036320000003,52.27885065000001,94.44444444444444,set #1
1970-01-01 00:00:22.577244640,3.7324299812316895,0.2377837747335434,1.7583063840866089,469.1955216,291.6439968,761.0597904,935.259,709.6453104,72.3742656,566.9899872000001,97.1053824,94.70899470899471,set #1
1970-01-01 00:00:22.587337375,3.7306785583496094,0.2371722161769867,1.7612582445144653,-343.56699000000003,-284.58655875,-430.18847625,-76.37136000000001,435.97968375,114.31143750000001,235.31127750000002,52.3503825,94.97354497354497,set #1
1970-01-01 00:00:22.598289609,3.7289249897003174,0.23654763400554657,1.764090657234192,-858.42030963,-629.8744818600001,-1123.09588833,-730.695498,650.8917429300001,31.21364064,-106.18231494,-351.23512788000005,95.23809523809523,set #1
1970-01-01 00:00:22.607640386,3.7271828651428223,0.23590226471424103,1.7667970657348633,112.17180234,74.52046758,-142.9170249,188.44350642,483.07727754,112.22711448000001,3.85575918,244.91283258,95.50264550264549,set #1
1970-01-01 00:00:22.618103862,3.725533962249756,0.23535452783107758,1.7693310976028442,160.06509714,279.9589494,226.83954384,514.21134492,531.2732224800001,220.9048764,271.33719834,60.0608034,95.76719576719576,set #1
1970-01-01 00:00:22.627657771,3.723975896835327,0.23490279912948608,1.7716634273529053,-669.0572417100001,-598.9050190500001,-529.53673656,-60.50052801,371.31305757,196.733862,37.18131339,-122.48205489,96.03174603174602,set #1
1970-01-01 00:00:22.637559772,3.7224624156951904,0.23433981835842133,1.7738322019577026,30.959458920000003,108.80961936,-13.883430599999999,180.12562776000001,229.49353128,213.46802412,68.45465328,-65.84559383999999,96.29629629629629,set #1
1970-01-01 00:00:22.647521377,3.720975160598755,0.23387983441352844,1.775841236114502,-1369.14134136,-995.29764945,-1663.93013202,-979.97472222,159.23996673,98.99514417,-475.65978875999997,-553.0609305,96.56084656084656,set #1
1970-01-01 00:00:22.657680392,3.7196106910705566,0.23354974389076233,1.777673602104187,248.61581472,249.23370264,-215.43830568,163.36641672,288.80264400000004,276.74170992,133.75548264,76.65871824,96.82539682539682,set #1
1970-01-01 00:00:22.668179870,3.7182633876800537,0.23326072096824646,1.7794684171676636,267.8842101,111.44861910000002,228.54285090000002,497.341221,196.5450669,274.1183484,143.6418399,-31.838157,97.08994708994709,set #1
1970-01-01 00:00:22.677285314,3.7169313430786133,0.23307320475578308,1.7811343669891357,-551.37668898,-614.2746831,-349.75147662,-70.94718228,285.22926822,262.62106338,-39.980013060000005,-178.56336654,97.35449735449735,set #1
1970-01-01 00:00:22.687294364,3.7156553268432617,0.23295941948890686,1.7826218605041504,-3.8174214000000006,45.004610039999996,331.82511024,533.76327888,279.52901184,275.53945692,54.392237640000005,1.7662943999999996,97.61904761904762,set #1
1970-01-01 00:00:22.697282672,3.7144432067871094,0.2329341173171997,1.783974051475525,162.15992832,209.79863424,257.30140176,454.39827264,206.96690976,281.84144352,98.16180816,-39.20238192,97.88359788359787,set #1
1970-01-01 00:00:22.707449794,3.7133800983428955,0.23281580209732056,1.785191297531128,42.00261078000001,-54.78958211999999,282.51382068,267.33143501999996,542.8937506200001,313.38136674000003,112.05902838,23.91390924,98.14814814814814,set #1
1970-01-01 00:00:22.717622400,3.7124226093292236,0.2328585982322693,1.7861515283584595,158.167776,255.14736,-50.18675999999999,166.62204,1497.9297840000002,346.759608,171.05556,66.013584,98.4126984126984,set #1
1970-01-01 00:00:22.727203012,3.711564064025879,0.2328188270330429,1.786922574043274,120.44585748,41.149928040000006,151.20769248,321.68844552,122.35051296,289.27145831999997,-48.352483920000005,-16.606955040000003,98.67724867724867,set #1
1970-01-01 00:00:22.737553001,3.710984945297241,0.23285332322120667,1.7873961925506592,125.91865884,11.035055849999999,463.33122927,577.40547501,492.86212287,348.22941348,251.47553067,-63.965000190000005,98.94179894179894,set #1
1970-01-01 00:00:22.747583270,3.7106056213378906,0.23288683593273163,1.7876337766647339,-42.928177500000004,91.588458,213.264012,364.3571295,240.0445554,391.8527223,144.3324753,127.0459827,99.2063492063492,set #1
1970-01-01 00:00:22.757523656,3.7103233337402344,0.23292765021324158,1.787643551826477,-193.9788552,-96.87556632,-410.70310008,-202.68842568,291.0406512,347.8066176,-67.82559576,-81.05414616,99.47089947089947,set #1
1970-01-01 00:00:22.768096328,3.7102181911468506,0.2330055683851242,1.7874317169189453,-466.53083568,-506.18243208,-489.79527168,-228.78669528,606.53935992,361.27251576000003,-22.82569224,-23.2622832,99.73544973544973,set #1
1970-01-01 00:00:22.777584195,3.710214138031006,0.23317284882068634,1.7870389223098755,111.7986558,142.596558,-339.4549587,-153.7763643,485.17267305,282.53541225,-101.22660404999999,-32.937719099999995,100.0,set #1
1970-01-01 00:00:22.777584195,3.710214138031006,0.23317284882068634,1.7870389223098755,111.7986558,142.596558,-339.4549587,-153.7763643,485.17267305,282.53541225,-101.22660404999999,-32.937719099999995,0.0,set #2
1970-01-01 00:00:22.787355781,3.710301399230957,0.2333964705467224,1.7865456342697144,328.86475518,179.12825579999998,20.75527233,279.04008873000004,459.47829252,243.13130049,235.7087148,200.27076498000002,0.2849002849002849,set #2
1970-01-01 00:00:22.797354341,3.710460662841797,0.23364588618278503,1.7859055995941162,81.7225422,82.04370057,174.47941329,231.19157295,11.22096495,91.94606967,45.53178669,58.34059413,0.5698005698005698,set #2
1970-01-01 00:00:22.807754874,3.7106504440307617,0.2339465320110321,1.7851355075836182,33.73546488,64.4471763,203.54420736,249.94113378000003,-34.85882322,58.27838796,41.2020258,-10.796676539999998,0.8547008547008548,set #2
1970-01-01 00:00:22.817672849,3.710972785949707,0.23443478345870972,1.7841733694076538,228.23268936,186.1810002,43.171355760000004,177.21331134,-76.52911110000001,12.504311040000001,37.58145573,141.16061115,1.1396011396011396,set #2
1970-01-01 00:00:22.827477813,3.711308717727661,0.23486603796482086,1.7831960916519165,299.26659243000006,66.24684612,248.00353266,353.25934137,32.59281324,-14.53785255,-13.735602660000001,-25.287884700000006,1.4245014245014245,set #2
1970-01-01 00:00:22.837611318,3.711862802505493,0.23534734547138214,1.7820342779159546,-182.14916538,-165.555,-356.38696938,-245.65368125999998,-56.42411502,-100.12182804,-324.09871416000004,-186.29411502000002,1.7094017094017095,set #2
1970-01-01 00:00:22.847468257,3.7126007080078125,0.23584933578968048,1.7806798219680786,-196.29417014999999,-149.47878855,-393.38034761999995,-172.76714715,108.05798483999999,-127.17713931,-116.95077888,-60.345107160000005,1.9943019943019944,set #2
1970-01-01 00:00:22.858070970,3.7134313583374023,0.23638106882572174,1.7792381048202515,-8.860265700000003,-176.8307892,-149.3922612,82.56830790000001,150.2305311,-141.5460774,-132.0763431,-111.0276102,2.2792022792022792,set #2
1970-01-01 00:00:22.867919803,3.7143352031707764,0.23695434629917145,1.7777317762374878,56.0093781,105.69733902,-227.26971930000002,-131.20879746,64.8210732,-164.97960375,-203.42745735,-36.03288663,2.5641025641025643,set #2
1970-01-01 00:00:22.877375007,3.7153568267822266,0.23752322793006897,1.7760744094848633,-2.0476801800000004,-95.50132917,-115.58656941000001,5.362035900000002,96.81742902,-185.20118721,-121.48566611999999,-68.68958811,2.849002849002849,set #2
1970-01-01 00:00:22.887426734,3.7164371013641357,0.23812508583068848,1.7742925882339478,0.2390684400000005,-27.10150716,52.15662972,104.28880956,68.91767454000001,-205.69293342,-3.0358021199999996,15.486151200000002,3.133903133903134,set #2
1970-01-01 00:00:22.897595048,3.7176713943481445,0.23881763219833374,1.7723220586776733,57.093260640000004,-40.266564,-30.83865408,78.36944543999999,72.79636728,-235.03948104,-25.47023232,47.52081984,3.418803418803419,set #2
1970-01-01 00:00:22.907987714,3.719027280807495,0.23949414491653442,1.7702380418777466,-202.78185486,-354.81332016,-765.15808434,-485.34498479999996,93.52376748,-365.34375228,-181.8531117,-59.99103318,3.7037037037037037,set #2
1970-01-01 00:00:22.917917848,3.7204747200012207,0.2400367110967636,1.7680058479309082,-218.13326184,-233.29790015999998,-224.62894272,-84.03620784,-133.157856,-386.46072504,-119.37543696,-45.50687232,3.988603988603989,set #2
1970-01-01 00:00:22.927464128,3.721949815750122,0.24067449569702148,1.7656173706054688,-281.44009919999996,-274.8460416,-446.98520256,-348.40517088,76.25726784000001,-297.68536512000003,-238.14558144,-180.41352576,4.273504273504273,set #2
1970-01-01 00:00:22.937489391,3.7236759662628174,0.2413843423128128,1.7629389762878418,542.88698139,246.9048699,141.15732306,345.54322218000004,294.32947518,-243.5668755,65.06847438,67.52846217000001,4.5584045584045585,set #2
1970-01-01 00:00:22.947487474,3.7254245281219482,0.24209676682949066,1.7601782083511353,50.4288837,-54.26657574,-687.3314393400001,-359.12241924,220.60891242,-255.00137832000001,-197.85985284,-94.69548816,4.843304843304844,set #2
1970-01-01 00:00:22.959457994,3.727245569229126,0.2427610158920288,1.757267951965332,21.03885342,-92.64614658,-217.56241104,39.397940399999996,246.69932273999999,-245.81150022,-85.98438498,-24.918208380000003,5.128205128205129,set #2
1970-01-01 00:00:22.968045831,3.7290616035461426,0.24342849850654602,1.7541898488998413,-38.65070235,-174.04250877,-476.64837558,-238.07077515,125.13303855000001,-281.8887045,-303.93372204,-168.15848478,5.413105413105413,set #2
1970-01-01 00:00:22.977333188,3.7310636043548584,0.2442578226327896,1.7508971691131592,-205.78869636,-250.6363158,-780.66604044,-325.26731172,14.62482996,-316.54835628,-281.19068016,-79.63083804,5.698005698005698,set #2
1970-01-01 00:00:22.987568259,3.7330822944641113,0.24514859914779663,1.747507095336914,185.05967961,72.6604788,-74.43538947,112.87241901,-135.31335636000003,-297.48148404,-114.09495474,32.40527394,5.982905982905983,set #2
1970-01-01 00:00:22.997953773,3.7351105213165283,0.24607150256633759,1.7439559698104858,18.94786413,-83.88009864,-380.27678481000004,-162.53906721,303.98535882,-952.8802998,-232.38074613,22.28116683,6.267806267806268,set #2
1970-01-01 00:00:23.007380367,3.7371394634246826,0.24706323444843292,1.7402406930923462,56.94844233,-95.50806759000001,-575.18402643,-328.97323289999997,-58.496282130000004,-394.67419914,-344.00619396,-77.23903746,6.552706552706553,set #2
1970-01-01 00:00:23.018015027,3.7392027378082275,0.24811160564422607,1.7363706827163696,-175.82548815,-179.45750628,-543.75852999,-298.96054812,-575.8173723900001,-304.67094840000004,-255.98491074,-44.2841841,6.837606837606838,set #2
1970-01-01 00:00:23.027782798,3.741360664367676,0.24912330508232117,1.732328176498413,9.783015059999999,-106.97368734,-278.66805564,46.87282236,3724.0648465800004,-2349.4166474999997,-133.10029122,-54.64882644000001,7.122507122507122,set #2
1970-01-01 00:00:23.037452340,3.743533134460449,0.25009697675704956,1.7281384468078613,80.68638240000001,22.0637196,-333.1485066,-132.6658944,4633.8681012,-292.1707932,-302.833323,-121.5482112,7.407407407407407,set #2
1970-01-01 00:00:23.047356963,3.7457592487335205,0.25104883313179016,1.723628282546997,-164.91814365,-162.43745505,-565.19701836,-311.09075478,3018.84032307,400.3791909,-357.8472456,-45.96421557,7.6923076923076925,set #2
1970-01-01 00:00:23.057456136,3.7481343746185303,0.25209841132164,1.7188630104064941,-22.039040400000005,-67.76456856,-202.21971743999998,-77.34071592,1262.89055568,514.06007016,-84.14812536,-16.192113599999995,7.977207977207978,set #2
1970-01-01 00:00:23.067688823,3.75051212310791,0.25314733386039734,1.7139338254928589,149.00592291,55.23040536,-285.91309266,-33.25022259,1016.39431959,-105.87393414,-132.29783931,110.23031487,8.262108262108262,set #2
1970-01-01 00:00:23.077249408,3.753012180328369,0.25435352325439453,1.708663821220398,40.6131024,-63.93137088,-241.91973312000002,-4.804350720000002,-44.01551232,876.4166486400001,-80.62303392000001,29.428838400000004,8.547008547008547,set #2
1970-01-01 00:00:23.087348581,3.7554192543029785,0.25555625557899475,1.703273892402649,162.03953493,-48.43129005,-227.34903204,28.823152020000002,538.8594182400001,310.51871487,-72.05402958,46.57361709,8.831908831908832,set #2
1970-01-01 00:00:23.097437978,3.757901191711426,0.25707077980041504,1.6975651979446411,-257.65876032,-310.11492486000003,-364.28447406,-187.63204356,242.21535312,511.11886176,-241.13181066,7.042554480000007,9.116809116809117,set #2
1970-01-01 00:00:23.107104659,3.760340929031372,0.2586527168750763,1.6917988061904907,74.48104638000001,-42.04692531,-147.28398711,55.742876280000004,344.48679135,153.77376027,-111.24058764,-49.45705674,9.401709401709402,set #2
1970-01-01 00:00:23.117287517,3.762707233428955,0.2602488398551941,1.6858668327331543,-265.62604107,-276.93604107,-590.33098254,-414.64222995,-177.22547154,7.199440170000001,-386.47190556,-209.36761287,9.686609686609687,set #2
1970-01-01 00:00:23.127300382,3.7650272846221924,0.2619805932044983,1.6796939373016357,218.46369792000002,-21.276602099999998,-53.71030002,109.84050402,-656.2880430600001,-1.8486756599999978,-174.61923882,60.2386122,9.971509971509972,set #2
1970-01-01 00:00:23.137448192,3.7673370838165283,0.26382604241371155,1.6733038425445557,-158.87374464,-204.52815552,-906.10900224,-615.74505408,256.52479008,397.26979968,-407.70174432,-136.1241024,10.256410256410257,set #2
1970-01-01 00:00:23.147791505,3.769655704498291,0.2657109498977661,1.66672945022583,57.275088,-17.95429545,-402.64784235,-149.3677302,228.1191393,379.8321657,-402.9023739,-53.11450365,10.541310541310542,set #2
1970-01-01 00:00:23.157223582,3.7719523906707764,0.2676222324371338,1.6599339246749878,-424.42674534,-388.52765406,-591.3261393,-458.83720038,356.84242620000003,239.1858339,-10.63977486,-120.36447150000001,10.826210826210826,set #2
1970-01-01 00:00:23.167534471,3.7743098735809326,0.2695518434047699,1.6528496742248535,-73.45124514,22.501799579999997,220.31752118999998,152.86136385,371.03934348,132.53996886000002,66.43629876,125.48229759,11.11111111111111,set #2
1970-01-01 00:00:23.177788615,3.776651620864868,0.2716023325920105,1.645569086074829,-91.1426334,49.647366600000005,-266.98314825,-59.54443755,350.34034035,365.94839774999997,200.20828815000002,4.941740699999999,11.396011396011396,set #2
1970-01-01 00:00:23.187392831,3.7790369987487793,0.27362316846847534,1.638113021850586,-327.78230511000004,-239.32348752000001,-815.9079591,-564.3419811900001,-163.79785890000002,289.68597996000005,-99.04673414999999,-37.78877505,11.68091168091168,set #2
1970-01-01 00:00:23.197375179,3.7813634872436523,0.275577187538147,1.6305323839187622,16.81979715,-13.51149891,-283.28883297000004,-118.51494993,568.445943,325.6444152,-16.921346130000003,20.18263962,11.965811965811966,set #2
1970-01-01 00:00:23.207678676,3.783613920211792,0.27761995792388916,1.622666358947754,35.26118856,27.2397996,-242.1340194,-167.52704436,-159.76418328,295.61622636,-386.77958279999996,7.362137640000002,12.250712250712251,set #2
1970-01-01 00:00:23.217687249,3.785841226577759,0.2796165645122528,1.6146552562713623,134.01375039,64.69477443,-33.43505880000001,24.03101025,9.748042980000008,-118.94275653,-132.92108388,53.95195806,12.535612535612536,set #2
1970-01-01 00:00:23.227471948,3.788034439086914,0.2815786898136139,1.606497049331665,112.09471416000001,40.650057239999995,-322.1947014,-270.13749672,495.36991140000003,117.40280916,-419.74362768000003,14.076670920000002,12.820512820512821,set #2
1970-01-01 00:00:23.237473846,3.7901220321655273,0.2835348844528198,1.5981833934783936,147.01740221999998,-28.89779334,-282.27118686,-237.15238872,-616.64579574,-55.10878464000001,-309.55619136,-20.269799940000002,13.105413105413106,set #2
1970-01-01 00:00:23.247436404,3.792088747024536,0.28552868962287903,1.5896731615066528,-185.24142935999998,-209.65486620000001,-102.09109248,-96.7388292,-385.59356160000004,-372.44311728,-350.2559268,-144.36414875999998,13.390313390313391,set #2
1970-01-01 00:00:23.257369876,3.7939627170562744,0.2875288426876068,1.5809924602508545,13.761708480000003,74.60133875999999,-59.315530559999985,-134.59500287999998,5.122227240000001,-738.53321412,-257.3933154,40.22706324000001,13.675213675213676,set #2
1970-01-01 00:00:23.267351270,3.795736312866211,0.28953829407691956,1.5722057819366455,23.4125112,63.1135206,182.6761482,-32.10279539999999,638.0390835000001,-451.1154219,-161.75354520000002,122.51330909999999,13.96011396011396,set #2
1970-01-01 00:00:23.277832389,3.797445774078369,0.2914436459541321,1.5632500648498535,-285.71164167,-28.068951300000002,-61.85182263,-162.96475650000002,575.85912618,-97.00909491,134.59216602,55.8055368,14.245014245014245,set #2
1970-01-01 00:00:23.287308574,3.7990527153015137,0.2934245765209198,1.5540854930877686,-12.781757820000003,52.470733380000006,-247.98618234,-200.33617188000002,135.2909298,-284.6053158,82.97880006,123.23785265999999,14.52991452991453,set #2
1970-01-01 00:00:23.297483802,3.8006246089935303,0.2953832745552063,1.544747233390808,-13.254516599999999,42.97878858,-303.48102408,-70.90836245999999,-638.1485799,-445.66093962,-62.75245002,6.66039894,14.814814814814815,set #2
1970-01-01 00:00:23.308080793,3.8022279739379883,0.29720407724380493,1.535155177116394,-133.49531286,2.3144351100000002,-37.56599652,216.01069815,-119.94516222000001,-390.11951043,131.4906489,112.9192584,15.0997150997151,set #2
1970-01-01 00:00:23.317730785,3.8037705421447754,0.2989419102668762,1.5253986120224,-30.270442799999998,47.2198155,-767.2365129000001,-239.4156765,912.9329274,-583.1460024,22.89113775,103.36618695,15.384615384615385,set #2
1970-01-01 00:00:23.327634454,3.805184841156006,0.30067726969718933,1.5154979228973389,153.67803126,-11.92612278,-426.56983356,-48.91383666,-120.36894168,-71.30780514,-14.284103339999994,71.06523684,15.66951566951567,set #2
1970-01-01 00:00:23.338081002,3.806516170501709,0.3023292124271393,1.5054130554199219,277.1007057,218.4252447,8.527979459999997,317.16070854,-1108.74603606,-390.44469282,99.66910356,93.14047236,15.954415954415955,set #2
1970-01-01 00:00:23.347606778,3.8077633380889893,0.3038548529148102,1.4953629970550537,-231.68589756,-145.86471197999998,-1125.4728412200002,-711.73444524,-868.77694956,-218.76881442,-269.97523956,-127.30983018,16.23931623931624,set #2
1970-01-01 00:00:23.357543111,3.8089241981506348,0.3052517771720886,1.4852099418640137,309.17224376999997,149.8137342,28.09578837,457.17326615999997,35.8436403,-104.87290827000001,199.86789888,243.33955074,16.524216524216524,set #2
1970-01-01 00:00:23.367674470,3.8099453449249268,0.30657297372817993,1.4749544858932495,165.1302042,-37.6424061,-214.4801919,160.7222019,-778.9514499,-187.52625060000003,146.3566533,105.70996799999999,16.80911680911681,set #2
1970-01-01 00:00:23.377533078,3.8108439445495605,0.307834655046463,1.464622974395752,-112.13599878000001,-121.79270844,-593.9075344800001,-161.14794540000003,-962.14602588,-912.4317485400001,94.20129576000001,20.31068988,17.094017094017094,set #2
1970-01-01 00:00:23.387543559,3.811647653579712,0.30903753638267517,1.454241156578064,-161.90386095,-61.860729060000004,-638.10416553,-230.90350608,-467.57796852,-514.4734413,210.1154796,-64.29613905,17.37891737891738,set #2
1970-01-01 00:00:23.398259998,3.812328815460205,0.31012436747550964,1.4438456296920776,-132.37370874,-42.02628222,-482.7416646,-92.03968800000001,1260.17640684,849.24239088,-9.73442262,39.21053838,17.663817663817664,set #2
1970-01-01 00:00:23.407251001,3.812861680984497,0.3111574649810791,1.4334321022033691,145.03461687,44.693746110000006,-51.8114415,147.35617104,1661.63726079,184.50025463999998,78.67400891999999,158.92578078000003,17.94871794871795,set #2
1970-01-01 00:00:23.417808175,3.813265323638916,0.31217658519744873,1.4230024814605713,248.70100125000002,-0.7064459999999997,-184.78148325,63.0843525,65.26766025,-180.3346545,25.358736,53.671566,18.233618233618234,set #2
1970-01-01 00:00:23.428038240,3.813580274581909,0.31305888295173645,1.4126307964324951,-315.5794512,-392.5839216,-225.10232159999998,-77.51571360000001,-401.47280159999997,-725.9129904,-96.2446992,-151.20967679999998,18.51851851851852,set #2
1970-01-01 00:00:23.438088775,3.8137803077697754,0.31382909417152405,1.4023076295852661,141.65797425,-11.06364675,-248.08693649999998,-18.89627025,669.217692,-233.0886675,-38.0408925,10.92041925,18.803418803418804,set #2
1970-01-01 00:00:23.447520852,3.813843011856079,0.3145267367362976,1.3920193910598755,-283.97762484,-312.88676796,-480.3339684,-248.3727246,743.7969801600001,-464.90369796000004,-206.43924288,-218.55416388,19.08831908831909,set #2
1970-01-01 00:00:23.457751394,3.8137989044189453,0.31515631079673767,1.3817662000656128,-186.56479842,-190.12934928,-356.1026196,-142.89675894,558.64908918,-445.32109986,-286.60306038,-365.04652391999997,19.373219373219374,set #2
1970-01-01 00:00:23.467697978,3.8136463165283203,0.31568610668182373,1.3716179132461548,-77.95253388,-123.45012186000001,-502.72052922000006,-262.8051465,652.22883336,-604.51562028,-275.56754004000004,-250.93445364000002,19.65811965811966,set #2
1970-01-01 00:00:23.477526069,3.8133738040924072,0.31615307927131653,1.3616739511489868,22.74609636,-112.15791678000001,-530.91017421,-285.38849781000005,369.80353332,-834.01924476,-231.0416472,-289.06197372,19.943019943019944,set #2
1970-01-01 00:00:23.487277150,3.812967300415039,0.31652024388313293,1.3518527746200562,199.01126700000003,21.873169500000003,-20.925352500000002,223.6566735,641.878068,263.513796,4.8278684999999975,-13.413016499999998,20.22792022792023,set #2
1970-01-01 00:00:23.497459293,3.81244158744812,0.31683027744293213,1.3421791791915894,-26.01646788,-178.26624270000002,-192.90293997,70.34016678,1154.23550034,-24.165375389999994,179.56711422,289.71516678,20.512820512820515,set #2
1970-01-01 00:00:23.507414937,3.8118255138397217,0.31711122393608093,1.3326656818389893,-230.92611204,-287.58777800999997,-351.01214226,-181.01745909,699.66823758,-308.42776965,99.97999791,58.00079103,20.7977207977208,set #2
1970-01-01 00:00:23.518005252,3.8111178874969482,0.3172149062156677,1.3232616186141968,-256.54667532,-284.5570338,-285.80650332,-143.95301388,-1426.86336936,-868.7614556400001,-7.0404828,181.8428274,21.082621082621085,set #2
1970-01-01 00:00:23.527229429,3.8102917671203613,0.31722360849380493,1.3139393329620361,-641.06070093,-298.69489065,-345.25118316000004,-304.90713942,-716.1736752300001,-577.65269874,-12.735535800000036,491.32971732,21.367521367521366,set #2
1970-01-01 00:00:23.537437797,3.8093068599700928,0.3172255754470825,1.3046278953552246,-726.18142623,-628.7568171300001,-686.1937137900001,-574.35443052,331.93675905,-422.73928086,-1833.70992987,1229.45798742,21.65242165242165,set #2
1970-01-01 00:00:23.547862172,3.808213949203491,0.317104309797287,1.2954301834106445,31.0948248,-147.34973136000002,-306.53721384,-91.73703864000001,-899.41209072,-142.96362444,144.1392498,198.45573852,21.937321937321936,set #2
1970-01-01 00:00:23.557519794,3.8069846630096436,0.31703683733940125,1.2864747047424316,521.33165292,-89.305983,-318.53133858,-60.783953880000006,809.97501936,-185.5016748,340.74652794,-14.460878639999999,22.22222222222222,set #2
1970-01-01 00:00:23.567546249,3.8056750297546387,0.3168167769908905,1.2775574922561646,375.91270509,-287.07806634,-576.60278325,-336.18,1147.19936487,-115.59551757,-571.13114253,107.02673826,22.507122507122507,set #2
1970-01-01 00:00:23.577501655,3.804187774658203,0.31681063771247864,1.2688065767288208,432.58809945,-236.71644555,-330.53145450000005,-70.62291795,307.46386125,-278.86735305,-179.89391745,286.15342665,22.79202279202279,set #2
1970-01-01 00:00:23.587451577,3.8026320934295654,0.31665903329849243,1.2600741386413574,434.45913186,-238.90003527,-423.86191263,-107.33784048,234.81205371,-401.90773466999997,-201.63520884000002,107.68478838,23.076923076923077,set #2
1970-01-01 00:00:23.597244382,3.8009660243988037,0.3165513873100281,1.2514917850494385,264.67744289999996,-373.80075954,-553.0320533400001,-384.56410356000004,402.53039268000003,-397.85477472,-348.55154646,59.451992340000004,23.36182336182336,set #2
1970-01-01 00:00:23.607963920,3.799220323562622,0.3162946105003357,1.2429431676864624,46.9347216,-337.3480968,-327.2139936,-150.8455728,-256.3067208,-510.20214960000004,26.0594568,89.9673528,23.646723646723647,set #2
1970-01-01 00:00:23.617875457,3.797395706176758,0.31604722142219543,1.2345117330551147,224.12781105,-196.71926079,-345.41424645,-258.05415324,-819.40924884,-221.07928947,-44.60215071,-15.888485729999996,23.931623931623932,set #2
1970-01-01 00:00:23.627368808,3.795504093170166,0.3157491683959961,1.2261284589767456,53.44146912,-235.63727616,-382.75526951999996,-202.84392648,387.06895968,129.1669704,-22.48114752,-125.39421336000001,24.216524216524217,set #2
1970-01-01 00:00:23.637665391,3.7935564517974854,0.31531646847724915,1.2178654670715332,-151.00579533,-538.6843530900001,-451.34557221,-234.87467679,810.79358217,429.33211502999995,109.22537301,-128.84509911,24.501424501424502,set #2
1970-01-01 00:00:23.647243858,3.7915432453155518,0.31476354598999023,1.2096930742263794,381.28248912,-247.73144292,-407.0641848,-279.49177854,520.2736617,726.01445514,-340.72993890000004,-42.909581519999996,24.786324786324787,set #2
1970-01-01 00:00:23.657615066,3.789457082748413,0.31416285037994385,1.20156991481781,419.06373365999997,-343.56253854000005,-331.45512426,-153.51956802,418.862574,889.8970119,-303.32348514,93.70878114000001,25.071225071225072,set #2
1970-01-01 00:00:23.668078780,3.787287950515747,0.3135656714439392,1.1935265064239502,210.89484,43.0137084,-359.22196440000005,114.17788200000001,886.806219,1013.273274,0.32804460000000013,-53.6036904,25.356125356125357,set #2
1970-01-01 00:00:23.677509427,3.785027265548706,0.3128548860549927,1.1855658292770386,-45.656167440000004,-29.265137850000002,-353.09013987000003,47.68820238,1196.9579388,933.2588265,191.08543779,-95.68675116,25.641025641025642,set #2
1970-01-01 00:00:23.687848687,3.7826716899871826,0.3121282458305359,1.1776703596115112,89.13027942,-54.2202414,-358.10981895,-16.043560649999996,1093.48058781,944.59804647,166.64533977,-214.56941883000002,25.925925925925927,set #2
1970-01-01 00:00:23.697407603,3.780282497406006,0.3113493323326111,1.1698598861694336,-3.42722367,-64.57877088000001,-270.69809442,73.40834202,978.99121905,755.96866722,257.04006042000003,36.650944200000005,26.210826210826212,set #2
1970-01-01 00:00:23.707269788,3.777806282043457,0.31067395210266113,1.162186861038208,-63.51956208,-139.07282844000002,-346.7323938,25.770390359999993,831.2741143200001,325.40132196,-226.49435952000002,84.86544612,26.495726495726498,set #2
1970-01-01 00:00:23.717816949,3.775233745574951,0.30995893478393555,1.154555082321167,-183.50823075,-189.9068769,-280.28310414,13.36375521,448.05911514,204.53649801,366.95824971,-25.21384437,26.780626780626783,set #2
1970-01-01 00:00:23.727181316,3.772552967071533,0.3091333508491516,1.1469194889068604,-6.19504392,-10.98865404,-210.21636792,54.872366639999996,-840.21799524,226.57266995999998,256.44644844000004,77.02509516,27.065527065527068,set #2
1970-01-01 00:00:23.737299085,3.7697978019714355,0.30820176005363464,1.1392614841461182,-4.532207550000001,-50.2405644,-308.96549385000003,-122.3415726,78.05894655,489.1758261,-23.406319949999997,-11.961834300000001,27.350427350427353,set #2
1970-01-01 00:00:23.748247266,3.76686692237854,0.3075234293937683,1.131763219833374,-14.282166599999996,-145.7190345,-286.22967438,-89.15291502000001,1303.65625494,10.0973496,-134.65922886,116.8118679,27.635327635327634,set #2
1970-01-01 00:00:23.757650972,3.7639694213867188,0.30660438537597656,1.1241519451141357,9.66138576,-39.26146068,-254.3793954,-101.12775816,837.9039754800001,87.70249332,-132.06747996,56.3095104,27.92022792022792,set #2
1970-01-01 00:00:23.767824292,3.760826826095581,0.3056739568710327,1.1165213584899902,-87.76244412,-165.25608216,-305.25044784,-128.12238816,1077.35430972,441.21919764,195.80115672,-247.0397202,28.205128205128204,set #2
1970-01-01 00:00:23.777686477,3.7577569484710693,0.30476418137550354,1.1089262962341309,-45.21127416,-119.44715094,-339.30319176,-105.52858914,1234.89282267,512.98671255,-0.08769773999999941,-238.69747902,28.49002849002849,set #2
1970-01-01 00:00:23.787466407,3.754584789276123,0.3038938045501709,1.1012802124023438,-15.500695859999997,-161.07949299,-189.89924030999998,26.20367178,759.99588834,134.70170922000003,200.62367013,-182.32746792,28.774928774928775,set #2
1970-01-01 00:00:23.797447801,3.751323938369751,0.3029903173446655,1.0935699939727783,-10.337080259999999,-72.90955737,-222.68566944,-114.04494113999999,406.6178805,-91.81381599,64.10154816,-138.44150892,29.05982905982906,set #2
1970-01-01 00:00:23.807474971,3.747943878173828,0.30208510160446167,1.085816740989685,-106.44048987000001,-189.67484874,-370.73449764000003,-106.53535386,515.4739827899999,-174.20400777,-104.08074105,-163.02226199999998,29.344729344729345,set #2
1970-01-01 00:00:23.817300678,3.7444517612457275,0.3012796640396118,1.0780919790267944,-45.98972586,-197.88150486,-131.41559106,-126.77393196,284.99639922,-377.5279326,202.0451199,-17.488263780000004,29.62962962962963,set #2
1970-01-01 00:00:23.827375055,3.740835666656494,0.3004293441772461,1.0702917575836182,-59.2783698,-171.6981435,-202.84838535,-287.28184095,343.9848048,-566.5735725,253.93881435,39.1007175,29.914529914529915,set #2
1970-01-01 00:00:23.837578893,3.737125873565674,0.2994481921195984,1.0624879598617554,-65.45846345999999,-199.14574329,-187.51726734,-316.14099309,159.10840101000002,-854.31537789,533.36293569,-41.00992506,30.1994301994302,set #2
1970-01-01 00:00:23.847381473,3.7332866191864014,0.2984464764595032,1.0546807050704956,-70.78971042,-170.40284664,-249.41083401,-314.27941272000004,156.69024267000003,-1242.49377447,34.13577492,52.064322960000005,30.484330484330485,set #2
1970-01-01 00:00:23.857357383,3.729187488555908,0.2975142002105713,1.0468441247940063,-127.22572550999999,-191.32182693000001,-306.26058567,-422.41649463,389.50657356,-1590.5835839400002,-19.955349960000007,-84.60388092000001,30.76923076923077,set #2
1970-01-01 00:00:23.867918134,3.7250797748565674,0.2963384687900543,1.0389806032180786,-56.9925291,-91.96481813999999,-214.7828904,-282.63156402000004,382.84506546,-1905.6471096,348.72042192000004,-196.28089962,31.054131054131055,set #2
1970-01-01 00:00:23.877502799,3.720855474472046,0.29525694251060486,1.031211495399475,-13.29016689,-57.20773968,-228.03865578,-281.92812063,455.97371157,-2398.9762371899997,0.9219093,-411.69084762,31.33903133903134,set #2
1970-01-01 00:00:23.887786269,3.716574192047119,0.2941898703575134,1.023501992225647,-67.94892936,-190.1977545,-237.34328982,-275.34956943,336.46847247,-2354.6936946,-93.35750658,-43.125352140000004,31.623931623931625,set #2
1970-01-01 00:00:23.897294641,3.7120277881622314,0.2930460274219513,1.0156537294387817,-70.61453217,-169.74413157,-318.2262018,-345.54355095,249.79859151000002,-2550.62432937,31.05708801,58.47211968,31.90883190883191,set #2
1970-01-01 00:00:23.907723308,3.7073118686676025,0.2919141352176666,1.007867455482483,-75.25652004,-207.46447332,-370.88795328,-289.71163416,-581.88169416,-3366.9137564400003,-34.654598160000006,58.70996196,32.193732193732195,set #2
1970-01-01 00:00:23.917933583,3.7024319171905518,0.29074200987815857,1.0001370906829834,89.35888416,-49.94244489,-261.38700783,-76.8124734,-15.300078299999996,-3511.1108919900003,-239.26938165,-151.09179462,32.47863247863248,set #2
1970-01-01 00:00:23.927149415,3.697434663772583,0.28949612379074097,0.9925110340118408,-35.687281500000005,-139.76129115,-253.8587571,-72.99511635,270.7895346,-3288.5600397,-241.44773835,85.39070085,32.763532763532766,set #2
1970-01-01 00:00:23.937917829,3.6923575401306152,0.2882346212863922,0.9849385023117065,133.34913657,85.92937002000001,-120.57291012,111.70354494,-1555.7977422,-3378.06493596,-652.9971762600001,123.13806686999999,33.04843304843305,set #2
1970-01-01 00:00:23.947571397,3.6872000694274902,0.2869492173194885,0.9774765968322754,78.47206926,-17.82913782,-146.61224136,-15.628103400000002,-856.5831888900001,-2504.9691381,-646.50948258,-28.63706898,33.333333333333336,set #2
1970-01-01 00:00:23.957219243,3.6819546222686768,0.28563234210014343,0.9701929092407227,122.70360102000001,57.294324360000005,-282.12439983,163.80430443,-1471.15563153,-2297.4764303399998,-575.91374412,-187.36670511,33.61823361823362,set #2
1970-01-01 00:00:23.967650771,3.67661190032959,0.2843484580516815,0.9630454778671265,136.53062553,71.34182484,-92.12396895,-10.46217861,-1253.05474125,-1270.87959024,-502.40998275,-4.690133760000001,33.903133903133906,set #2
1970-01-01 00:00:23.977388740,3.671229600906372,0.2830348014831543,0.9559949040412903,79.260441,8.237572199999999,-107.1381246,-95.0957046,-646.5441996,-1036.4370198,-225.071301,25.328043,34.18803418803419,set #2
1970-01-01 00:00:23.987131953,3.6657118797302246,0.2816288471221924,0.9490035176277161,-61.50068652,-83.05336962,-459.64380735,25.707090630000003,59.09861841,-693.79059789,-526.21654488,-33.61965945,34.472934472934476,set #2
1970-01-01 00:00:23.997538448,3.660181999206543,0.2801915109157562,0.9421809911727905,-65.71479407999999,-72.19519008,-7.500380160000001,-139.58959872000003,64.71014783999999,-504.99057024,-173.44551744,3.06063888,34.75783475783476,set #2
1970-01-01 00:00:24.007503152,3.6545650959014893,0.2787371277809143,0.9354656934738159,-36.520317600000006,-39.15443376,41.843093759999995,149.5728312,110.03117424,-200.78316335999997,117.95656079999999,-101.33316336,35.042735042735046,set #2
1970-01-01 00:00:24.017427325,3.648919105529785,0.2773347795009613,0.9289804100990295,-67.65138900000001,-34.9979565,148.44375975,30.143373,-69.90183525,109.97883975,38.3220825,10.056091499999999,35.32763532763533,set #2
1970-01-01 00:00:24.027446628,3.643249273300171,0.27584579586982727,0.9225765466690063,-50.895,-25.03995156,-18.89087616,-65.22632688,387.96673968,551.25942924,-22.317615840000002,-59.16172704,35.612535612535616,set #2
1970-01-01 00:00:24.037112355,3.637662172317505,0.2744481563568115,0.9164025187492371,-61.720893000000004,-35.8735299,138.7918155,-84.97391955,60.96272325,692.7297409500001,-172.46811075000002,101.54244945,35.8974358974359,set #2
1970-01-01 00:00:24.047338128,3.631955146789551,0.2730654180049896,0.9105976223945618,-91.25012208,-11.447479679999999,61.844471520000006,-90.75922752,-884.70939024,895.42182912,-112.33975584000001,46.8645528,36.182336182336186,set #2
1970-01-01 00:00:24.057995916,3.6263177394866943,0.27160772681236267,0.9047435522079468,-146.33987783999999,-17.50380996,104.04490044,-148.76588687999998,1139.79001344,-395.28751547999997,38.035466039999996,78.83574660000001,36.46723646723647,set #2
1970-01-01 00:00:24.068118930,3.620648145675659,0.2702331244945526,0.8990893959999084,-184.0156422,-1.9490367000000002,-113.4055767,-99.4121232,-899.1416966999999,-250.22015070000003,341.39958060000004,-136.10983620000002,36.75213675213675,set #2
1970-01-01 00:00:24.077343583,3.6150777339935303,0.26897773146629333,0.8940670490264893,-195.88584483,-5.81193951,-242.85843192000002,-120.81501315,-1759.39862709,205.6814997900001,203.02993425,-140.50688691,37.03703703703704,set #2
1970-01-01 00:00:24.087580800,3.6094436645507812,0.26754915714263916,0.8886833190917969,-147.252456,20.589192,-117.538512,-218.906376,-5159.124672,2197.1408159999996,204.30852,40.821456,37.32193732193732,set #2
1970-01-01 00:00:24.097320914,3.6037895679473877,0.2663085162639618,0.883496105670929,-180.50015646,35.50172106,-46.21820502,-204.19397388,500.70359274,17.519136180000032,255.06,45.35383086,37.60683760683761,set #2
1970-01-01 00:00:24.107332587,3.598101854324341,0.26507216691970825,0.8784248232841492,-101.92494819,65.7829107,-90.8612679,-164.88375189,1591.76526483,732.88724184,133.07410233000002,-4.9914111000000005,37.89173789173789,set #2
1970-01-01 00:00:24.117496848,3.5924227237701416,0.2638223469257355,0.8734579086303711,-164.22933696,11.7,-112.13852208,-193.54772112,1601.0950113600002,2336.5475016,302.85389471999997,23.77725168,38.17663817663818,set #2
1970-01-01 00:00:24.126965642,3.5867929458618164,0.2626131474971771,0.868682861328125,-91.52340912,76.75559658,-32.678191260000006,-155.58919505999998,2446.63857126,2739.25281318,454.61482014,-147.62839962,38.46153846153846,set #2
1970-01-01 00:00:24.137448192,3.5811767578125,0.26132774353027344,0.8639852404594421,-157.81466688,81.94135872,15.04930752,-225.01169184000003,185.1884736,3233.2090252800003,660.22579584,-17.30007552,38.74643874643875,set #2
1970-01-01 00:00:24.147323489,3.5756473541259766,0.2601010203361511,0.8594563007354736,-171.93348237,124.4898213,-65.17687527,-121.12982154,735.8941161,4205.60196186,453.78991125,8.26017894,39.03133903133903,set #2
1970-01-01 00:00:24.157091499,3.5701122283935547,0.2587766945362091,0.8549689054489136,-119.76821532000001,118.57404624,-77.50686957,-114.11574603,-123.7779192,4570.02366873,418.10783781000004,23.78721462,39.31623931623932,set #2
1970-01-01 00:00:24.167379022,3.5646021366119385,0.2574096918106079,0.8506094217300415,-72.94254864000001,171.54051798,11.508261180000002,-116.32666344,226.79956962,4742.95940664,339.22821738000005,72.9939834,39.6011396011396,set #2
1970-01-01 00:00:24.177360177,3.559023380279541,0.2561258375644684,0.8463605046272278,-130.42877016,151.97092014,53.83967238,-135.3765933,-260.44096494,4758.605363459999,283.2556194,-33.90204441,39.88603988603989,set #2
1970-01-01 00:00:24.187348008,3.553255081176758,0.2548482120037079,0.8421393036842346,-90.44729304,179.94126072,-36.48216936,-101.64161279999999,1347.66387288,4385.41225512,163.23053760000002,-177.723468,40.17094017094017,set #2
