,x,y,z,emg_1,emg_2,emg_3,emg_4,emg_5,emg_6,emg_7,emg_8,percentage,Source
1970-01-01 00:00:44.137804155,3.9492909908294678,-0.16139435768127441,1.4737212657928467,131.0862462,197.0576049,-322.7395665,-225.21689775000002,-46.89895665,716.9646568500001,-50.143858050000006,23.13909,0.0,set #1
1970-01-01 00:00:44.147670154,3.949381113052368,-0.16138949990272522,1.4742790460586548,389.03779512,218.62842455999998,756.3224167200001,575.36927136,-204.94284564,812.56885164,698.05351824,683.80242606,0.05037783375314862,set #1
1970-01-01 00:00:44.157317047,3.949465274810791,-0.1613205224275589,1.474809169769287,346.59593514,308.60626914,277.22671119,295.84295481000004,-298.51301376000004,690.71837328,66.7255992,78.05465421,0.10075566750629723,set #1
1970-01-01 00:00:44.167412405,3.9495439529418945,-0.1611993908882141,1.475188970565796,-527.89459125,-391.8785871,-939.72057465,-276.40887105,-189.80716755,663.66646125,42.6714405,136.5262743,0.15113350125944586,set #1
1970-01-01 00:00:44.177147750,3.9496800899505615,-0.16101007163524628,1.4753855466842651,781.13919,655.0363950000001,729.7269525,787.3229325000001,-61.930245000000006,654.84549,85.485855,212.38776000000001,0.20151133501259447,set #1
1970-01-01 00:00:44.188310031,3.9498484134674072,-0.16065600514411926,1.4754633903503418,794.0026926,635.8749126600001,822.16795557,817.65637395,-147.22084611,633.6255385200001,116.40790122,350.20693383,0.2518891687657431,set #1
1970-01-01 00:00:44.197484140,3.9500439167022705,-0.16029198467731476,1.4754693508148193,767.9059986,765.3371388,1214.3366586000002,932.564646,-307.7256234,650.365365,444.4661598,598.198146,0.3022670025188917,set #1
1970-01-01 00:00:44.207950477,3.950254201889038,-0.15980632603168488,1.4753493070602417,-377.99043126,-452.79388635,-121.80075375,-8.556254460000002,-136.23775659,560.54960442,-67.53467214,107.57718816,0.3526448362720403,set #1
1970-01-01 00:00:44.217120294,3.9504189491271973,-0.159150168299675,1.4750381708145142,-502.98722058000004,-512.87684916,-133.66784339999998,16.397134259999994,-249.98839164,434.53215546,-219.73472664000002,-178.67369832,0.40302267002518893,set #1
1970-01-01 00:00:44.227591638,3.9506802558898926,-0.15839451551437378,1.474609375,622.6647117599999,455.93345772,433.12985118,564.4168959,-243.8179068,474.76424502,297.215295,262.71838632000004,0.45340050377833757,set #1
1970-01-01 00:00:44.237687234,3.950955629348755,-0.1576301008462906,1.4741765260696411,271.56944802000004,298.4288307,38.218355759999994,177.11892042,-113.86423152,384.40806612,89.04696605999999,126.54338892,0.5037783375314862,set #1
1970-01-01 00:00:44.247669820,3.9512577056884766,-0.15686531364917755,1.473663330078125,601.7499384,550.3315818,1432.8601014,1304.7059532,1.2323609999999996,424.602828,494.41085460000005,453.99771300000003,0.5541561712846348,set #1
1970-01-01 00:00:44.257744436,3.9515693187713623,-0.15595129132270813,1.4730719327926636,62.576899319999995,17.0290614,-338.01203904,-22.994566919999997,-49.092409079999996,349.64323524,-15.640689479999999,105.58855164000002,0.6045340050377834,set #1
1970-01-01 00:00:44.267325286,3.9519765377044678,-0.15498694777488708,1.4723923206329346,-311.45886174000003,-210.71124594,-570.3323847,-329.69693874,-42.640076699999995,293.19129216000005,-382.28424624,-168.8273847,0.6549118387909321,set #1
1970-01-01 00:00:44.277260665,3.952428102493286,-0.15397626161575317,1.4717700481414795,148.02812115,151.1732001,131.63539935,283.96538625,45.45812115,333.08776995,181.5366813,202.0033626,0.7052896725440806,set #1
1970-01-01 00:00:44.287821416,3.9528634548187256,-0.15289942920207977,1.4711910486221313,185.11001808,190.54274927999998,272.42667816000005,300.41037936000004,118.28175216,255.3668208,249.9765372,282.90440568,0.7556675062972292,set #1
1970-01-01 00:00:44.297374372,3.9532995223999023,-0.1517491489648819,1.470503568649292,258.22213716,246.58288824,28.78749276,89.2139586,12.021411480000001,195.95147676,165.21202464,167.88225324,0.8060453400503779,set #1
1970-01-01 00:00:44.307510023,3.9537267684936523,-0.15048716962337494,1.470027208328247,-172.12892892000002,-126.84202128,-831.74222196,-478.40792493000004,-126.81164652,120.55344717,-330.62785119,-169.79629836,0.8564231738035265,set #1
1970-01-01 00:00:44.317651634,3.954193115234375,-0.14912278950214386,1.4696711301803589,155.55825636,150.06996107999998,530.7046095000001,475.92898157999997,-104.99131421999999,196.23678515999998,342.71160612,327.7414686,0.9068010075566751,set #1
1970-01-01 00:00:44.327619438,3.9547290802001953,-0.14772264659404755,1.4691977500915527,202.3168485,149.85818874,725.52876318,681.00940362,-47.02422738,198.86985768,182.92872078,144.15523044,0.9571788413098237,set #1
1970-01-01 00:00:44.340132122,3.955165147781372,-0.14609824120998383,1.4688907861709595,268.03330866,275.48985048,306.63657648,290.83449018,-222.8283096,182.40487278,158.69937720000001,190.3389813,1.0075566750629723,set #1
1970-01-01 00:00:44.347382431,3.955625534057617,-0.1443086415529251,1.4686414003372192,128.16085191000002,161.76243642,20.791305599999998,57.64371795,-283.69074045,154.66770696,33.140684459999996,78.5007483,1.057934508816121,set #1
1970-01-01 00:00:44.357738142,3.9561069011688232,-0.1424257904291153,1.468489170074463,99.93408204,31.515297840000002,-194.60856245999997,-47.6244834,57.39282978000001,50.561644380000004,-44.990212799999995,-27.649881480000005,1.1083123425692696,set #1
1970-01-01 00:00:44.367449169,3.9565505981445312,-0.14041878283023834,1.4683294296264648,322.35385533,270.32412654,673.52600172,603.9247227000001,187.29874176,53.36690814,290.81209014,242.10098094,1.1586901763224182,set #1
1970-01-01 00:00:44.377388601,3.956998348236084,-0.13832825422286987,1.4680891036987305,39.01717833000001,64.32474321000001,147.19066245000002,223.31744604,669.67444791,-103.20349533000001,39.837595199999996,61.40883762,1.2090680100755669,set #1
1970-01-01 00:00:44.387463216,3.9574248790740967,-0.13603371381759644,1.4678891897201538,96.42713808,129.53041296,445.97197008,302.87803728000006,120.94303728,82.28948832,-71.4842544,-24.027525600000004,1.2594458438287155,set #1
1970-01-01 00:00:44.397691612,3.9579010009765625,-0.133599653840065,1.4676878452301025,399.3901548,268.65643428,402.53612412,439.19740332000003,-158.62608528,82.14887616,85.56554292,63.106550520000006,1.3098236775818641,set #1
1970-01-01 00:00:44.407327060,3.958360433578491,-0.13110648095607758,1.467355728149414,524.4240378,478.6208544,277.0027572,311.6893494,-44.2868244,18.641048400000003,79.59432000000001,185.8885626,1.3602015113350125,set #1
1970-01-01 00:00:44.417516117,3.958782196044922,-0.1282804310321808,1.4669970273971558,-158.2064016,-27.68240514,-329.09728917,-195.79929330000002,510.91169844,-121.07643405,-208.41070965,-129.44112246,1.4105793450881612,set #1
1970-01-01 00:00:44.427484159,3.9592225551605225,-0.1253480315208435,1.4665040969848633,-230.29545084,-268.8915216,253.27253679,90.70679163,379.29196071,-37.11368895,-80.45580855,28.10819427,1.4609571788413098,set #1
1970-01-01 00:00:44.438073520,3.9596543312072754,-0.12218274176120758,1.4660300016403198,74.82265439999999,176.8195728,441.6897576,221.587392,543.8315376,-153.9459792,-153.5794416,40.474356,1.5113350125944585,set #1
1970-01-01 00:00:44.447752361,3.9599955081939697,-0.11879639327526093,1.4656085968017578,-47.56852269000001,-21.422155950000004,-673.14857259,-530.22380502,105.98812848,-122.12606445,-165.08682371999998,-1.3052395200000007,1.561712846347607,set #1
1970-01-01 00:00:44.457158689,3.9603111743927,-0.1152287945151329,1.4651015996932983,176.01520326000002,117.00630006,-271.12503522,-568.89817569,-452.27865969000004,-56.20625478,-239.50298853000004,-53.88409338,1.6120906801007557,set #1
1970-01-01 00:00:44.467531089,3.9605538845062256,-0.1113724485039711,1.4646347761154175,-46.5038457,-161.69230973999998,59.39830221,121.80332541,-282.8662239,3.77379873,-114.46091241,-59.73256380000001,1.6624685138539044,set #1
1970-01-01 00:00:44.477584962,3.960817575454712,-0.10745390504598618,1.4642670154571533,-616.6074681,-426.65904761999997,-1579.39159716,-1029.26938998,-205.48225542,-60.47371356,-494.24930802,-318.80181606,1.712846347607053,set #1
1970-01-01 00:00:44.488004808,3.9610021114349365,-0.10337896645069122,1.4639277458190918,260.1262248,161.03623535999998,-70.96878672,-76.48314024000001,364.68562728,-25.34814984,-296.463804,-45.37505856,1.7632241813602016,set #1
1970-01-01 00:00:44.497042779,3.9611220359802246,-0.0991286039352417,1.4635685682296753,97.06954842,135.44384177999999,531.3536205900001,456.76659015,-217.85131251,182.16136185000002,195.49556364,141.94771032000003,1.8136020151133503,set #1
1970-01-01 00:00:44.507523183,3.9612293243408203,-0.09462624043226242,1.4631823301315308,155.52131439000001,120.63415026,97.50615849,-70.33117689,-355.52971311000005,141.62449509,63.98518893,149.55988203,1.863979848866499,set #1
1970-01-01 00:00:44.517089490,3.9613163471221924,-0.09006230533123016,1.4629313945770264,-10.5135498,55.990373399999996,-620.3976168,-387.39171509999994,-284.678901,67.6432965,-29.894439900000002,16.1649228,1.9143576826196473,set #1
1970-01-01 00:00:44.527139549,3.961308479309082,-0.08530411124229431,1.4627083539962769,-257.47367022,-183.12032231999999,-169.62967085999998,-105.67430484,525.59877084,40.09585632,-46.16592006,-68.20484385,1.964735516372796,set #1
1970-01-01 00:00:44.538120155,3.961237668991089,-0.0804404765367508,1.462363362312317,-8.121980099999998,-69.56209455,158.62719990000002,55.99370985,1985.34643905,-65.72559435,-52.845,21.41825595,2.0151133501259446,set #1
1970-01-01 00:00:44.547610406,3.961097002029419,-0.07535171508789062,1.4620325565338135,97.60938954,121.28357358000001,205.72895147999998,219.93474438,-1552.98885924,565.9939194000001,35.74636728,50.41640838,2.0654911838790935,set #1
1970-01-01 00:00:44.557271127,3.960874319076538,-0.07013683766126633,1.461780309677124,-486.97682631,-378.82322673,-223.54965984,-77.17194381,331.19947262999995,-101.30666286,52.04712669,96.97677327,2.115869017632242,set #1
1970-01-01 00:00:44.567093734,3.960521936416626,-0.06480121612548828,1.461620569229126,222.08335812,288.50484624,-107.29258487999999,98.71134857999999,1170.23335338,-231.75854832,65.54603484,217.06063548,2.1662468513853903,set #1
1970-01-01 00:00:44.576962833,3.960035800933838,-0.05936663597822189,1.461500644683838,315.5567532,283.87076133,74.32066706999998,101.73472881000001,-349.41070281000003,272.68711197,179.90020776,144.09268341,2.216624685138539,set #1
1970-01-01 00:00:44.588268404,3.9594502449035645,-0.053745754063129425,1.461421012878418,103.84329852,0.20975603999999493,251.72696952,236.800512,-783.78923532,312.95823312,245.9648802,172.1017974,2.2670025188916876,set #1
1970-01-01 00:00:44.597104673,3.9587998390197754,-0.04803750663995743,1.4614708423614502,262.91211063000003,204.67527015000002,85.97752917,186.66495627,-774.18095625,100.88022984,320.63794853999997,331.07609262,2.3173803526448364,set #1
1970-01-01 00:00:44.607075815,3.9580581188201904,-0.0424458272755146,1.4616117477416992,377.2008162,337.21191855,-601.28641755,-462.15221715,-540.6436347,49.454749500000005,66.4265511,210.05432565,2.367758186397985,set #1
1970-01-01 00:00:44.617557411,3.957202672958374,-0.03681007772684097,1.4617743492126465,478.92408954,309.83260971000004,610.08131652,507.72300189000003,-768.43843128,148.10758638000001,411.83639094,432.24422007,2.4181360201511337,set #1
1970-01-01 00:00:44.627254133,3.9562795162200928,-0.031231435015797615,1.4619166851043701,226.73746797,240.79921008,346.09179345,318.5541333,-788.7369941100001,150.06048681000001,314.31421008,323.06424423,2.468513853904282,set #1
1970-01-01 00:00:44.637919788,3.95530366897583,-0.02557971142232418,1.4622358083724976,146.97170748,120.91571076,310.39576776,216.08632344,-563.36147868,113.05107840000001,111.99256536,194.47549836,2.518891687657431,set #1
1970-01-01 00:00:44.647799139,3.9542620182037354,-0.020098615437746048,1.4625731706619263,13.020485010000002,190.00382817000002,109.25310590999999,117.60313539,-690.66035376,96.92339475,118.8123261,222.1891893,2.5692695214105794,set #1
1970-01-01 00:00:44.656967048,3.9531428813934326,-0.014709824696183205,1.4628969430923462,-329.07503616,-190.68420072,-1137.82427304,-662.65621656,-786.64624584,21.012522960000002,-94.70297928,83.66222592,2.6196473551637283,set #1
1970-01-01 00:00:44.667143945,3.951979160308838,-0.009375900961458683,1.4631683826446533,183.35628284999999,151.8460359,357.43854705,242.0365779,-417.50984925,-12.453704250000001,91.22110334999999,187.22006745000002,2.6700251889168767,set #1
1970-01-01 00:00:44.677861099,3.9507970809936523,-0.0040656933560967445,1.4636015892028809,-278.54733738000004,-135.29776923,-218.15363427,-268.33369095,843.88439811,-270.16225236,-123.44631039000001,31.94725911,2.720403022670025,set #1
1970-01-01 00:00:44.688081865,3.9495675563812256,0.001108073629438877,1.464054822921753,48.388649400000006,69.3532905,-178.36727805,-158.9046498,-76.2498633,-71.70544875,-96.9665385,49.8266496,2.770780856423174,set #1
1970-01-01 00:00:44.697749500,3.9482779502868652,0.006169408559799194,1.4644360542297363,-298.64171999999996,-115.63675500000001,-461.64105,-306.63321,-510.112395,47.00826,-104.30628,-2.025855,2.8211586901763224,set #1
1970-01-01 00:00:44.707507495,3.9469716548919678,0.011277483776211739,1.4648094177246094,-52.30098705,23.03500875,-301.25414865,-367.34498775,-177.9531546,7.650924450000001,-100.79960475,-3.3171430500000003,2.8715365239294712,set #1
1970-01-01 00:00:44.717194204,3.945668935775757,0.01624377816915512,1.4651379585266113,84.65091648,224.17543512,17.382154919999998,-26.44983744,-720.97914096,152.1901212,5.071836119999997,90.53497128000001,2.9219143576826196,set #1
1970-01-01 00:00:44.727209215,3.944331645965576,0.021143432706594467,1.4654520750045776,30.471246,127.4734305,-35.66995965,-84.0107931,-1400.13047655,398.06368095,-57.6104529,24.299263949999997,2.9722921914357685,set #1
1970-01-01 00:00:44.738089447,3.9429023265838623,0.026107026264071465,1.4657175540924072,-210.73425360000002,-153.12165648,-80.90816019,-199.1792907,-885.9281340000001,61.17982104,-151.80232431,-83.29382802,3.022670025188917,set #1
1970-01-01 00:00:44.747832422,3.941472291946411,0.0310311708599329,1.465872049331665,-25.374837539999998,91.18473468,-23.861000280000003,-115.97062074,177.00028944,-68.53092792000001,148.56516246,186.9844275,3.073047858942066,set #1
1970-01-01 00:00:44.757317190,3.9400360584259033,0.03590167686343193,1.466079831123352,-64.0658538,15.741554400000002,-65.80570230000001,-164.81993580000002,763.4035188,-229.65385559999999,102.3026667,119.27378970000001,3.123425692695214,set #1
1970-01-01 00:00:44.767600421,3.9384727478027344,0.04084955155849457,1.4663232564926147,-194.03403045,-148.96218051,-131.15058684000002,-205.56554226,1866.21316518,-270.37904166,47.87254836,14.753503049999999,3.173803526448363,set #1
1970-01-01 00:00:44.777357463,3.9368627071380615,0.045816924422979355,1.466428518295288,44.99605656,84.36132081000001,73.47077244,-31.56876021,912.72193077,-46.33343481,267.68028456,180.61422756,3.2241813602015115,set #1
1970-01-01 00:00:44.787709360,3.935180902481079,0.05089504271745682,1.4664225578308105,40.389242399999986,1.788789599999987,124.35842640000001,-137.48436,546.6417216,102.417276,336.2598408,221.1262248,3.27455919395466,set #1
1970-01-01 00:00:44.797565822,3.9334299564361572,0.05615704506635666,1.4664249420166016,248.94991992,367.09027212,43.66204206,-35.18303802,476.28979008000005,225.66043578,279.99143718,244.87070789999999,3.3249370277078087,set #1
1970-01-01 00:00:44.807196741,3.9315311908721924,0.06156143546104431,1.4663954973220825,-3.791831160000001,265.28415381,161.36775057,98.91149189999999,689.36901696,226.8274788,269.1337818,246.93214533,3.375314861460957,set #1
1970-01-01 00:00:44.817405824,3.9296886920928955,0.0666004940867424,1.4657303094863892,-356.73619488,-257.08732608,261.23403072,175.5681408,382.4329392,393.48124608,163.94812512000001,18.01998432,3.425692695214106,set #1
1970-01-01 00:00:44.827432279,3.9274234771728516,0.0723743736743927,1.4655307531356812,-640.2302318100001,-540.25770162,-566.69372292,-567.92002488,-207.86288367,517.02549912,-73.72882062000001,-82.28462346,3.4760705289672544,set #1
1970-01-01 00:00:44.837731008,3.925243854522705,0.07774218171834946,1.4649367332458496,-452.93549184,-217.49428896,-483.94377408,-583.5654863999999,-283.33229184,449.15272896,-118.97449824,-148.55040096000002,3.5264483627204033,set #1
1970-01-01 00:00:44.847290163,3.9228451251983643,0.08329711854457855,1.4644626379013062,182.04838587,412.00843398,208.26929994,185.20175349,-224.82467319,557.18026377,178.42079463,139.23283179,3.5768261964735517,set #1
1970-01-01 00:00:44.857411746,3.9202756881713867,0.08894167840480804,1.4638653993606567,-64.95740862,67.89441906,-59.70392298,-73.80137076,-431.56013706,399.62359008000004,16.437695820000002,-28.205541780000004,3.6272040302267006,set #1
1970-01-01 00:00:44.867211227,3.917607069015503,0.09475654363632202,1.4631751775741577,-475.96994913,-323.99632785,-345.00553152,-429.99619806,-314.2289826,436.34432204999996,-85.9232205,-86.18480793,3.677581863979849,set #1
1970-01-01 00:00:44.877352123,3.9148733615875244,0.1006174087524414,1.4624463319778442,-602.2108216800001,-439.63849371000003,-367.45394907,-310.60388229,-510.05490588000004,361.54427595,-222.04190346000001,-272.78044677,3.727959697732998,set #1
1970-01-01 00:00:44.888234024,3.9120020866394043,0.10650569945573807,1.4617112874984741,-103.69113456000001,-39.62506392,83.72172744,-9.712575600000001,-384.69659592,221.76046464,-50.84783496,-85.17221544,3.7783375314861463,set #1
1970-01-01 00:00:44.897126798,3.9090065956115723,0.11242659389972687,1.4608741998672485,372.12731712,561.5467072800001,317.33554866000003,238.3906707,219.23195112,71.33000004,277.31701218,208.08359754,3.8287153652392947,set #1
1970-01-01 00:00:44.907232646,3.905864715576172,0.1185198649764061,1.4600398540496826,244.47343206,275.83439208,-94.72524672,-44.535323039999994,1419.3030735,-712.12001952,152.06635938,27.6062358,3.8790931989924435,set #1
1970-01-01 00:00:44.917281036,3.9026739597320557,0.12459467351436615,1.459153175354004,-190.58954148,-274.55390508,-209.52248304,-304.1964042,1028.54029824,-718.952676,20.499379680000004,-213.80464248,3.929471032745592,set #1
1970-01-01 00:00:44.927329425,3.8993868827819824,0.13057833909988403,1.4583417177200317,-370.35141975,-238.05735525,-498.48884475,-503.0557155,827.00397,-640.1221125,42.59174399999999,-63.707748,3.979848866498741,set #1
1970-01-01 00:00:44.938148622,3.895939350128174,0.1366000473499298,1.457488775253296,-337.2398523,-147.63765978,-127.97566470000001,-169.56901182000001,-2079.3226755600003,-108.7608444,-57.59102856,-158.81714082000002,4.030226700251889,set #1
1970-01-01 00:00:44.947350387,3.8924200534820557,0.14261376857757568,1.4565751552581787,-21.8188698,11.991413459999997,-91.03650504,-142.9697139,506.22190437,-579.59617599,3.4576881300000006,-107.18108583,4.080604534005038,set #1
1970-01-01 00:00:44.957371597,3.8888673782348633,0.14857910573482513,1.455804467201233,-57.26345352000001,-303.60154032,-488.75050809000004,-394.46535375,436.82742129,-346.11296148,-72.85036980000001,-186.77743734,4.130982367758187,set #1
1970-01-01 00:00:44.967120771,3.8852410316467285,0.1544487029314041,1.4551407098770142,214.57932405,92.24543445,-20.02638768,-93.29744697,205.61789547,-451.04512010999997,57.28105929,-102.42486072,4.181360201511335,set #1
1970-01-01 00:00:44.977111701,3.881467819213867,0.1602858603000641,1.454472303390503,-358.67552136,-234.31318443,-549.63240813,-519.5940434099999,1328.9687700900001,-576.8184474,-47.194141019999996,-199.7380983,4.231738035264484,set #1
1970-01-01 00:00:44.987415676,3.87762713432312,0.1660713255405426,1.4538143873214722,-409.38959256,-284.11295640000003,-536.38429572,-581.3319329999999,848.7780678,-605.52179532,-40.71790944,-178.48150008000002,4.282115869017632,set #1
1970-01-01 00:00:44.997220640,3.8737690448760986,0.171824648976326,1.4533965587615967,258.75120960000004,177.3389904,28.7087424,7.5869664,235.389336,-520.0316784,135.8039904,-67.0515456,4.332493702770781,set #1
1970-01-01 00:00:45.008029584,3.8698246479034424,0.1774826943874359,1.4530889987945557,-452.55834,-362.45794416,-408.64656144,-360.31306271999995,13.4354688,-647.71506384,-33.77099232,-266.28250272,4.38287153652393,set #1
1970-01-01 00:00:45.017211561,3.8657708168029785,0.1830449104309082,1.452815294265747,-21.67109724,-140.93625546,-33.145886280000006,-59.575253399999994,-74.89441986,-703.8379658700001,153.70874454,-38.42599176,4.433249370277078,set #1
1970-01-01 00:00:45.027133350,3.8616366386413574,0.18870514631271362,1.4527413845062256,-143.6637735,12.142689,-212.4717465,-198.444675,-27.4284075,-621.619947,53.0937615,-86.50028400000001,4.483627204030227,set #1
1970-01-01 00:00:45.037359600,3.857510805130005,0.19423137605190277,1.4527347087860107,-522.571608,-627.7599120000001,-453.68980799999997,-381.77833200000003,-168.647856,-830.469276,-112.78332,-244.708932,4.534005037783375,set #1
1970-01-01 00:00:45.047298793,3.8533520698547363,0.1995697319507599,1.4528350830078125,137.12150516999998,139.47838086000002,2.322724169999999,13.90424139,-879.61925142,-781.97589015,87.90734160000001,-53.85805854,4.5843828715365245,set #1
1970-01-01 00:00:45.057198886,3.8491761684417725,0.20477595925331116,1.4529026746749878,-2.58573042,-50.58844518,69.33732234,43.9032399,-992.1745547999999,-1054.65099012,127.55530008,15.68114262,4.634760705289673,set #1
1970-01-01 00:00:45.067401771,3.8449411392211914,0.20993447303771973,1.4529428482055664,36.95458884000001,55.40706639,-51.77105388,-46.62788871,-93.26959122,-803.06276583,49.607582699999995,-1.3957596900000002,4.685138539042821,set #1
1970-01-01 00:00:45.077550773,3.840784788131714,0.21496571600437164,1.4530513286590576,5.854250219999999,59.394014940000005,45.019992810000005,39.25995606,-395.21505153,-894.4051837500001,56.4655884,107.71098546,4.73551637279597,set #1
1970-01-01 00:00:45.087557439,3.83655047416687,0.21987274289131165,1.4532033205032349,-32.25984684,-101.28433068,-63.40072791000001,-17.11153431,-394.57793154,-883.4212459800001,-16.46152014,-35.56490925000001,4.785894206549119,set #1
1970-01-01 00:00:45.097415571,3.8323211669921875,0.22465761005878448,1.4533624649047852,-442.41694497000003,-350.26277988000004,-265.19230842,-172.66096263,1341.44378667,-868.37869521,-49.10963655,-39.07057947,4.836272040302267,set #1
1970-01-01 00:00:45.107170944,3.8281540870666504,0.22904562950134277,1.4532055854797363,-93.75160704,-58.69878143999999,-121.01779872,-125.41271807999999,1096.77155328,-826.85469984,17.77180704,17.79343488,4.886649874055416,set #1
1970-01-01 00:00:45.117515926,3.8239734172821045,0.2334929257631302,1.4532538652420044,-510.93726684,-266.74512306,-747.87078366,-527.62146372,1038.25698834,-918.1629857400001,-128.40547278000003,-54.306774600000004,4.937027707808564,set #1
1970-01-01 00:00:45.127304677,3.8197872638702393,0.23783554136753082,1.4534714221954346,-560.9592307800001,-271.59530463,-385.41841728,-262.72962729,-84.18908784,-786.21559224,-66.50116745999999,-77.95413717,4.987405541561713,set #1
1970-01-01 00:00:45.137993221,3.815535068511963,0.24218997359275818,1.4536617994308472,-192.2799333,-234.24330657000002,-526.65742077,-408.70885887,207.06163608,-903.49516569,-510.45519798000004,-245.92479989999998,5.037783375314862,set #1
1970-01-01 00:00:45.147567634,3.8112282752990723,0.24653360247612,1.4537477493286133,273.79889394,269.94512376,-170.3903877,-75.0588891,-196.8255042,-800.94979068,-518.52188388,28.64053998,5.08816120906801,set #1
1970-01-01 00:00:45.157193546,3.8069162368774414,0.25082647800445557,1.4538581371307373,258.03545664,259.99179258,-102.0602232,-17.26664316,-57.04664316,-812.81659056,-364.85726784,-34.275532979999994,5.138539042821159,set #1
1970-01-01 00:00:45.167213563,3.8025474548339844,0.25502124428749084,1.453988790512085,112.15971546,186.74484309000002,33.36552882,87.67540119,-76.22799405,-718.2513312000001,-178.61013495,9.21315096,5.188916876574307,set #1
1970-01-01 00:00:45.177370433,3.798105478286743,0.2591826319694519,1.4540534019470215,-108.72146805,-27.656615610000003,0.4487148899999909,35.62972257000001,142.61809380000003,-633.74934051,-118.18569789,50.93695775999999,5.2392947103274565,set #1
1970-01-01 00:00:45.187866096,3.793598175048828,0.2633606195449829,1.4540555477142334,233.97621312,160.59677712,-140.62492704,-100.65380208,107.33828976000001,-621.50333232,-158.92887504,35.6983536,5.289672544080605,set #1
1970-01-01 00:00:45.197183494,3.789062976837158,0.2675167918205261,1.45405113697052,-527.99008704,-313.82455259999995,-749.62224558,-591.39473406,27.997488479999998,-611.15532738,-330.1747059,-155.4281586,5.340050377833753,set #1
1970-01-01 00:00:45.207299833,3.784453868865967,0.2716359794139862,1.454030990600586,-164.40649290000002,216.75314232,-115.35900402,-54.83093889,-7.40902305,-625.21635969,15.195671400000004,222.21118841999998,5.390428211586902,set #1
1970-01-01 00:00:45.217478160,3.779794692993164,0.2756768763065338,1.453944206237793,346.39553520000004,482.4848808,-24.832079999999998,70.1916384,-88.579296,-598.0138944,180.40688640000002,340.7775384,5.44080604534005,set #1
1970-01-01 00:00:45.227303628,3.7751080989837646,0.2796967923641205,1.4537602663040161,-353.0092878,-319.72678296,-555.61889136,-469.67341356,-38.865582599999996,-654.02814672,-2.5727847600000047,200.35270476,5.4911838790931995,set #1
1970-01-01 00:00:45.237801675,3.7704341411590576,0.2836664021015167,1.4535776376724243,-55.76020125,11.0377215,-172.70134050000001,-49.036455000000004,22.20393825,-643.172127,164.4950775,334.9120125,5.541561712846348,set #1
1970-01-01 00:00:45.247794752,3.7657833099365234,0.28755077719688416,1.4534528255462646,-478.0655568,-170.87971679999998,-614.3244432,-511.66780704,-20.36971872,-660.1778975999999,22.09275744,258.73247712,5.591939546599496,set #1
1970-01-01 00:00:45.257094507,3.761054277420044,0.2913932204246521,1.453318476676941,422.35083813,315.88522953,95.44701074999999,151.02926241,-88.58069649000001,-649.09798356,126.07179039000002,350.07103794,5.642317380352645,set #1
1970-01-01 00:00:45.267439727,3.7563352584838867,0.29517263174057007,1.4532307386398315,-130.04297982,79.82669487,-65.77265994,-31.45960818,2934.91599765,-1361.41356936,101.58065424,337.45481133000004,5.692695214105794,set #1
1970-01-01 00:00:45.277324085,3.7517430782318115,0.2988370656967163,1.4532618522644043,-160.8342489,-143.50250265,-186.80700675,-192.7983642,-110.56315530000003,-786.8708152500001,70.18227255000001,219.03242595,5.7430730478589425,set #1
1970-01-01 00:00:45.287465934,3.7470180988311768,0.30243584513664246,1.4534550905227661,46.452861,397.20171425999996,-15.270421140000003,70.02043464,-517.31704752,-1019.28898344,239.97385776,334.28314296,5.793450881612091,set #1
1970-01-01 00:00:45.297559623,3.742311716079712,0.3058871626853943,1.453782558441162,-414.65198463,-308.06777079000005,-291.28794201,-221.47426626,927.17900067,-1026.39476589,41.09319357,39.966450030000004,5.843828715365239,set #1
1970-01-01 00:00:45.307718400,3.737504243850708,0.30932343006134033,1.454133152961731,189.8364,265.06771200000003,126.442368,132.467712,-841.895184,-857.637144,279.145776,259.65264,5.894206549118389,set #1
1970-01-01 00:00:45.317254428,3.732811450958252,0.3126654624938965,1.4546267986297607,-380.7317514,-302.79830880000003,-546.54952716,-394.80937704,-762.80733048,-876.38115708,15.276557400000002,-29.86328124,5.944584382871537,set #1
1970-01-01 00:00:45.327185039,3.728102445602417,0.31590086221694946,1.455236792564392,-17.11389342,132.85954188,-283.32118269,-140.54431209,-726.74969835,-865.8783042,156.03993093,115.22044404,5.994962216624685,set #1
1970-01-01 00:00:45.338179235,3.7233104705810547,0.31908610463142395,1.4558227062225342,-34.34152605,21.8830521,-146.5779822,-58.5483756,-1057.70684955,-690.2855076000001,172.23572339999998,135.35877225000002,6.045340050377834,set #1
1970-01-01 00:00:45.347584609,3.7185351848602295,0.32223236560821533,1.456365704536438,95.40623156999999,204.75645566999998,10.72516185,67.29008715,-662.0246763,-718.5751618500001,190.29926643000002,177.33640587,6.095717884130982,set #1
1970-01-01 00:00:45.357654218,3.71386456489563,0.3252546489238739,1.4569512605667114,-521.1239857200001,-466.56989964,-590.79329166,-389.5983546,-729.89956494,-735.3849243000001,13.26136812,-66.15812112,6.146095717884132,set #1
1970-01-01 00:00:45.367200021,3.709087371826172,0.32828035950660706,1.45767080783844,-175.42203276,279.51460524000004,-178.30702539,-83.18564046,-555.39771417,-708.27922932,190.75033496999998,102.53236773,6.19647355163728,set #1
1970-01-01 00:00:45.377396469,3.7044811248779297,0.33111703395843506,1.4582568407058716,396.04305585000003,563.0726236200001,199.50932586,328.63723230000005,-397.38994307999997,-661.58773746,338.47801494,224.51819637,6.246851385390428,set #1
1970-01-01 00:00:45.387882833,3.6999049186706543,0.3338872790336609,1.4588209390640259,44.980320840000005,46.406929919999996,-186.22909343999999,-94.81342299,743.84736426,-972.7763409,64.48185588,-59.305974000000006,6.297229219143577,set #1
1970-01-01 00:00:45.397238616,3.6953330039978027,0.33664941787719727,1.4593610763549805,-127.68346968,-83.24130048000002,-108.65128872000001,-2.833059840000004,-4455.18031296,353.98408344,178.0463256,103.43522904,6.347607052896726,set #1
1970-01-01 00:00:45.407368545,3.6907665729522705,0.3393174409866333,1.4599980115890503,77.4388797,350.88375465,135.11860049999999,197.00772975,-2966.223234,-120.9796068,275.97443055,284.38688460000003,6.3979848866498745,set #1
1970-01-01 00:00:45.417452697,3.6862759590148926,0.34187522530555725,1.4606215953826904,-35.62028925000001,143.54037828,-127.99136883,-7.4787804000000015,-4459.75183134,677.1272285699999,202.65241464000002,202.76326824,6.448362720403023,set #1
1970-01-01 00:00:45.427178030,3.6817808151245117,0.3444204330444336,1.4611902236938477,-126.5254068,-33.068743500000004,-349.6941084,-221.69432220000002,1896.9184572000001,-401.0499948,208.0915902,116.7828363,6.498740554156171,set #1
1970-01-01 00:00:45.438643341,3.6774091720581055,0.3468742072582245,1.4617692232131958,-428.14520463,-198.95856942,-18.52985979,41.229938880000006,2242.29752292,-337.49129037,237.33523788,236.32237941,6.54911838790932,set #1
1970-01-01 00:00:45.448365573,3.6731278896331787,0.34919917583465576,1.462422251701355,-218.28186705,-437.73813018000004,-470.26913856,-333.84582231,3165.3608021100003,-433.29257751,162.86138583000002,130.63395930000001,6.599496221662469,set #1
1970-01-01 00:00:45.457279806,3.668830156326294,0.3514765799045563,1.4630764722824097,-341.62634454,-340.23964416,-375.0959121,-275.96571912,1982.78847624,-330.05768796,-29.08959768,29.261452739999996,6.6498740554156175,set #1
1970-01-01 00:00:45.467460756,3.664525270462036,0.3537375032901764,1.4636456966400146,-106.74208896,102.82734696,-270.72746532,-158.6336388,3144.04783524,-781.33664232,187.56676068,233.81180784,6.700251889168766,set #1
1970-01-01 00:00:45.477184419,3.6603996753692627,0.3558598756790161,1.4642219543457031,-476.67371934000005,-172.94182191,-152.93715723,-55.634046,2389.19714475,-685.6845372,-19.51853748,-36.35273694,6.750629722921914,set #1
1970-01-01 00:00:45.487467651,3.6563527584075928,0.35787564516067505,1.4648165702819824,237.37038467999997,283.41425619,30.3396444,132.39814224,1589.01981888,-532.58970609,167.46139332,181.07134617,6.801007556675064,set #1
1970-01-01 00:00:45.497431640,3.652299165725708,0.3598473072052002,1.4653897285461426,-374.7480516,-204.5123184,-272.9573184,-141.56920440000002,2613.6869928,-402.388584,-23.2499436,23.1151128,6.851385390428212,set #1
1970-01-01 00:00:45.507462148,3.6483614444732666,0.36173591017723083,1.4658561944961548,-19.84706724,-49.42252692000001,-202.83946020000002,-72.5849514,2452.34952456,-367.8063948,120.44752824,144.13041239999998,6.9017632241813605,set #1
1970-01-01 00:00:45.517197494,3.644495964050293,0.3635786473751068,1.466343641281128,352.61051046,341.06594886,-17.532771359999998,146.9048178,3810.16939758,-834.04523436,100.38312024,236.74187394,6.952141057934509,set #1
1970-01-01 00:00:45.527307872,3.6407127380371094,0.36538219451904297,1.4668110609054565,353.25609696000004,211.99506431999998,160.532736,222.8298384,-823.9706592,-383.19126144,93.38418336000001,179.69698656,7.002518891687657,set #1
1970-01-01 00:00:45.537946348,3.6369287967681885,0.3670921325683594,1.4673330783843994,221.31655884,200.1236172,72.80761644,169.43459832000002,-1765.2015888,-534.5210114399999,98.99018844,274.54715964,7.052896725440807,set #1
1970-01-01 00:00:45.547283535,3.6331257820129395,0.36879897117614746,1.4677287340164185,-47.64308445,-109.32719655,-205.6657083,-153.3225174,-2148.0803214,-680.92983855,23.3191686,122.84415195000001,7.103274559193955,set #1
1970-01-01 00:00:45.557124261,3.6294989585876465,0.37042850255966187,1.4680616855621338,-72.58474821,-8.442514469999999,-124.34070207,-82.95915732,-3463.90280223,-314.57193339,-42.748765410000004,178.70432736,7.153652392947103,set #1
1970-01-01 00:00:45.567762498,3.625971794128418,0.37196195125579834,1.4685301780700684,188.61906882,-124.66800606000001,-20.581889640000004,58.822166519999996,-2261.10551472,-999.96429702,115.86435354000001,184.60679016,7.204030226700252,set #1
1970-01-01 00:00:45.577248935,3.6224288940429688,0.37346625328063965,1.4689888954162598,59.221234800000005,26.73338265,13.98445035,54.429921,-943.8299052,-660.5412099,47.04058125,190.701693,7.254408060453401,set #1
1970-01-01 00:00:45.587739830,3.6189072132110596,0.3749430179595947,1.4694337844848633,-47.5784595,312.6672861,169.9413768,140.984883,205.1365641,-570.269271,78.0756561,255.74611140000002,7.30478589420655,set #1
1970-01-01 00:00:45.597132091,3.6154685020446777,0.37636762857437134,1.4698972702026367,9.669677550000003,14.551624229999998,15.96408177,84.65148198,-1.645824960000084,326.28610287000004,44.91065163,209.23275321,7.355163727959698,set #1
1970-01-01 00:00:45.607810382,3.6120283603668213,0.3777538537979126,1.4703614711761475,-646.5995718,-556.83913896,-436.04486952,-342.30399606,-595.4022243000001,-108.49971834,-204.40133064,47.33664078,7.405541561712846,set #1
1970-01-01 00:00:45.617016201,3.608673095703125,0.3790438771247864,1.4708150625228882,-408.41232588,-404.01536877,-188.23946856,-132.37208244,-611.27770548,-111.12843456,-142.98792963000002,7.485178350000001,7.455919395465996,set #1
1970-01-01 00:00:45.627131824,3.6052768230438232,0.3803249001502991,1.4712331295013428,-0.3414028800000004,163.95141984,32.360421599999995,125.66259888,206.79399311999998,68.73242688,-65.50960416000001,88.61491392,7.506297229219144,set #1
1970-01-01 00:00:45.637653236,3.601954698562622,0.3815898597240448,1.4716029167175293,-205.54817868,-37.20193776,-105.7754958,-55.880490120000005,4.805218080000001,-131.41762608000002,-130.96192356,27.947609040000003,7.5566750629722925,set #1
1970-01-01 00:00:45.647318964,3.5987112522125244,0.38278836011886597,1.4719905853271484,-393.9402324,-386.755707,-389.8923132,-323.18546676,-84.68396352,-190.40738184,-264.89399196000005,-0.8572808400000014,7.607052896725441,set #1
1970-01-01 00:00:45.657510404,3.595478057861328,0.3839137554168701,1.472305178642273,-13.37408592,-84.95102148,-38.1197466,5.9748358800000005,434.93043983999996,-273.72343128,-197.53165380000002,227.24303004,7.657430730478589,set #1
1970-01-01 00:00:45.667236213,3.5922117233276367,0.3850788176059723,1.4725661277770996,-17.41056993,-30.402783839999998,-34.27052226,-10.77553815,-86.08140098999999,-266.2495368,-217.25759991,288.72295413,7.707808564231739,set #1
1970-01-01 00:00:45.677031879,3.589015483856201,0.386159211397171,1.472801685333252,-110.75090208,-160.17683409,-237.08404005,-233.04008715,207.20713611,-240.81256718999998,-286.06631586000003,-0.5359266899999999,7.758186397984887,set #1
1970-01-01 00:00:45.687719469,3.58573842048645,0.38722628355026245,1.4730480909347534,-10.925862089999999,127.86581886,-119.91222516,-88.85649162,-110.33203545,-312.24193767,-424.85391819,257.46764667,7.8085642317380355,set #1
1970-01-01 00:00:45.697373991,3.5824058055877686,0.38825058937072754,1.4732247591018677,225.28970295,160.86905211,125.7653748,190.1468556,-19.59863529,-245.30527788,-249.80444424,268.27680438,7.858942065491184,set #1
1970-01-01 00:00:45.707369451,3.5790765285491943,0.38926321268081665,1.473287582397461,303.99736809,288.84386505,-3.26715948,32.61386505,-419.92407366,-263.02344783,-197.40366867,163.74293871,7.909319899244333,set #1
1970-01-01 00:00:45.717200641,3.575788736343384,0.39025187492370605,1.4733177423477173,-225.23225907,-98.79575589,-276.52175421000004,-279.64325259000003,-321.62950014,-204.16874985,-285.09350142,131.24899788,7.959697732997482,set #1
1970-01-01 00:00:45.727389221,3.572483777999878,0.39122167229652405,1.4734045267105103,-87.20459787,83.29075442999999,-293.18535987,-228.09739797,-212.26392954,-127.4342667,-157.00301331,146.71358481,8.010075566750631,set #1
1970-01-01 00:00:45.738156919,3.569209098815918,0.3921613097190857,1.4734236001968384,4.2742049999999985,-73.43344554000001,-273.84507189,-199.4702385,-225.75908745,-123.73987314,-136.86607155000002,157.84430142,8.060453400503778,set #1
1970-01-01 00:00:45.748156433,3.5660197734832764,0.39308223128318787,1.4734290838241577,-28.72019865,97.29485688000001,-299.64253838999997,-243.23507715000002,-315.36974508000003,-68.09604204,-105.90891324,211.75006671,8.110831234256928,set #1
1970-01-01 00:00:45.757356529,3.562819242477417,0.3940057158470154,1.473475694656372,460.86911715,523.51806936,150.26963523,170.93293191,-326.88433284,-30.95072214,133.8122214,305.44271199,8.161209068010075,set #1
1970-01-01 00:00:45.767141466,3.5596420764923096,0.39492207765579224,1.473429799079895,51.68017998,30.66105822,-301.1224671,-219.01607364,-328.4800545,-60.27309132,-225.49505862,75.89718942,8.211586901763225,set #1
1970-01-01 00:00:45.777169589,3.556539297103882,0.3958059847354889,1.4733701944351196,280.17492749999997,223.38654545999998,31.90007418,103.87452231,-247.93966899,44.31852984,-0.8770214700000007,389.72283129,8.261964735516374,set #1
1970-01-01 00:00:45.788135175,3.553494453430176,0.3966512382030487,1.4732486009597778,-120.820713,-78.140634,-227.2147215,-145.55224125,-190.28085375,10.56627,-84.52061475,196.50498075000002,8.312342569269521,set #1
1970-01-01 00:00:45.797057037,3.5504188537597656,0.3975159227848053,1.4731336832046509,241.54953147,197.12159570999998,23.39335518,71.11953147,-219.61968873,11.54284404,39.75081591,345.54115011000005,8.36272040302267,set #1
1970-01-01 00:00:45.807308797,3.547429084777832,0.39835286140441895,1.473016381263733,-93.14173518,122.90882213999998,126.80917392,114.97578261,-224.11206324,-18.18646245,112.14986562,316.35583005,8.413098236775818,set #1
1970-01-01 00:00:45.817261581,3.5444915294647217,0.3991326093673706,1.472861886024475,412.40180748,213.71420187,-42.69115851,-9.8668479,-158.38624425,-5.94936498,60.14188206,247.55229681,8.463476070528968,set #1
1970-01-01 00:00:45.827188377,3.541546106338501,0.3999059796333313,1.4726611375808716,266.36024142,469.9140654,95.94118638,180.82323597,-154.07462616,59.70283488,154.63226376,361.73047248,8.513853904282117,set #1
1970-01-01 00:00:45.837828521,3.538682460784912,0.4006463885307312,1.4724833965301514,-21.31199265,36.76134774,-208.15727556,-116.10038427,-107.32113054,82.63839831,70.68847070999999,175.90470261000002,8.564231738035264,set #1
1970-01-01 00:00:45.847266082,3.535860776901245,0.4013572335243225,1.4722968339920044,66.93402144,285.36594138000004,62.93823588000001,123.00735954000001,-77.46403860000001,114.37377198,167.74103502,382.47708719999997,8.614609571788414,set #1
1970-01-01 00:00:45.857179288,3.5330541133880615,0.4020569622516632,1.4720667600631714,78.68445624,248.86821336,67.63458312,134.26336872000002,-54.24950544,138.2815044,181.95544536,345.8353392,8.664987405541561,set #1
1970-01-01 00:00:45.867278223,3.5302634239196777,0.402749627828598,1.4717761278152466,603.17501829,431.54593911,76.93354734,100.34774763,51.01288335,178.26621423,302.23410126000005,359.87073369,8.71536523929471,set #1
1970-01-01 00:00:45.877828722,3.5275261402130127,0.4034132659435272,1.4714866876602173,133.61199618,365.97646254,36.28413048,92.86650204,65.92156116,178.59430836,315.51462462,303.5777472,8.76574307304786,set #1
1970-01-01 00:00:45.888175134,3.524878978729248,0.4040127098560333,1.4712169170379639,-435.07312992,-338.57003388,-233.96137284000002,-222.5815254,129.87259038000002,166.93199718,118.71955368,41.94899436,8.816120906801007,set #1
1970-01-01 00:00:45.897080783,3.52229380607605,0.404582142829895,1.47092604637146,305.76193674,404.1149463,200.24446182,222.3756444,110.54779476,241.41263484,358.49521539,255.96962469000002,8.866498740554157,set #1
1970-01-01 00:00:45.908878211,3.519754409790039,0.40511569380760193,1.4706439971923828,-157.49846112,-364.88069319,-207.66390996,-150.72891912,162.83296029,250.51023816,159.54631446000002,24.81392667,8.916876574307306,set #1
1970-01-01 00:00:45.917440538,3.5172336101531982,0.40563324093818665,1.4703320264816284,283.90647168,469.51702356,231.34076628000003,266.96990736,187.3579149,264.3621162,418.55549034,292.32515286,8.967254408060453,set #1
1970-01-01 00:00:45.927278642,3.5148234367370605,0.4060958921909332,1.4700210094451904,54.16974576,404.02015992,-65.95853472,-16.141138259999998,265.10457012,295.04106684000004,292.78243643999997,163.4061468,9.017632241813603,set #1
1970-01-01 00:00:45.937832956,3.512380838394165,0.40655043721199036,1.4697340726852417,23.409021480000007,264.211506,-165.01395612000002,-118.73292599999999,209.87019456000002,292.11529776,239.66294664,134.22470568,9.06801007556675,set #1
1970-01-01 00:00:45.947860126,3.509948968887329,0.4069872498512268,1.4693865776062012,-54.070461900000005,10.157833920000002,-16.83760884,12.0838575,267.73054152,286.99113611999996,219.45598428,102.3318231,9.1183879093199,set #1
1970-01-01 00:00:45.957445030,3.5075645446777344,0.40740975737571716,1.4690237045288086,-38.1879693,-125.1782376,-92.4150123,-55.4272719,358.0047276,283.0756851,97.4956047,-11.402203799999999,9.168765743073049,set #1
1970-01-01 00:00:45.967029218,3.5052826404571533,0.4078054130077362,1.4686737060546875,78.88222134,482.4548586,-91.36545834,19.03118568,370.99015278,304.56223824,215.24838426,118.64490378,9.219143576826196,set #1
1970-01-01 00:00:45.977294807,3.503005027770996,0.4081815779209137,1.468332052230835,8.24914428,231.2167689,32.336393310000005,67.76205033,286.65654147000004,315.82911555,247.01275443,164.61235011000002,9.269521410579346,set #1
1970-01-01 00:00:45.987581615,3.50077748298645,0.4085790812969208,1.467920184135437,-332.01298845,-326.27121539999996,-499.6721320500001,-421.30892895,258.09255225,258.4064925,-12.084994349999999,-72.53097345,9.319899244332493,set #1
1970-01-01 00:00:45.997007493,3.4985477924346924,0.4089662730693817,1.467476487159729,91.31393895000001,243.45168237000001,-4.60402098,39.46305675,206.47949166,288.77667429,142.43023938000002,93.2493276,9.370277078085643,set #1
1970-01-01 00:00:46.007893209,3.4966001510620117,0.4092983901500702,1.4670907258987427,-423.96924492000005,-547.57721889,-253.93802849999997,-182.25576759,232.10125419,293.84427852,-5.755792770000006,-45.74211408000001,9.420654911838792,set #1
1970-01-01 00:00:46.017223720,3.4946775436401367,0.4096006453037262,1.4667260646820068,66.5990832,222.729936,134.3292912,118.32245879999999,134.9410608,329.9095176,180.3807876,170.42527320000002,9.47103274559194,set #1
1970-01-01 00:00:46.027010087,3.492859125137329,0.40988290309906006,1.4662882089614868,-139.23840879,128.46681627,-135.47324427,-118.17725322,150.66249276000002,324.90316794,26.33456436,9.52692156,9.521410579345089,set #1
1970-01-01 00:00:46.037760620,3.4910898208618164,0.4101710319519043,1.4658455848693848,337.53827640000003,317.6883528,179.37582,205.6623114,103.8575382,353.2202232,127.1818626,120.2695494,9.571788413098238,set #1
1970-01-01 00:00:46.047417049,3.4894587993621826,0.4104473888874054,1.4653725624084473,9.343144590000001,24.99607266,-0.9317700600000016,8.075054129999998,120.64566618,316.60814094,-6.540999269999999,-58.089279690000005,9.622166246851386,set #1
1970-01-01 00:00:46.057581310,3.487851858139038,0.4107300043106079,1.464903473854065,-134.4893316,105.9149481,-15.986587499999999,22.1922324,62.5348815,314.706327,19.3334076,25.6827441,9.672544080604535,set #1
1970-01-01 00:00:46.067254905,3.4863553047180176,0.4109768271446228,1.4644124507904053,90.36898845,334.1953251,214.8133611,210.69917114999998,59.97959565000001,323.0995755,90.43014240000001,113.38281435,9.722921914357682,set #1
1970-01-01 00:00:46.077154998,3.4849050045013428,0.411232590675354,1.463942050933838,225.79785228,319.72914168,20.371231140000003,70.80994206,-26.18460936,333.34851576,86.47062528000001,115.77326202,9.773299748110832,set #1
1970-01-01 00:00:46.087902431,3.483473300933838,0.41145795583724976,1.4632655382156372,-238.77160827,-252.26543004,-210.39154851,-212.03239278,46.91902449,323.21506269,-48.66044469,-2.6690156999999957,9.823677581863981,set #1
1970-01-01 00:00:46.097366695,3.4821460247039795,0.4116646349430084,1.4627434015274048,-73.7807733,-127.01511029999999,-51.756574349999994,-89.9252484,53.55906075,343.21295580000003,31.164447600000003,69.02085645000001,9.874055415617129,set #1
1970-01-01 00:00:46.107287054,3.480910062789917,0.4118182957172394,1.4623491764068604,-43.81389558,29.95792332,-16.917368520000004,31.079305140000006,46.5797553,305.89353834,-20.87338656,-1.5358270199999993,9.924433249370278,set #1
1970-01-01 00:00:46.117257003,3.4797325134277344,0.41196322441101074,1.4620308876037598,187.57769589,361.85418711,221.73494031,259.59744954,-68.22624159,326.29890384,138.92384415,144.65176362000003,9.974811083123425,set #1
1970-01-01 00:00:46.127110605,3.478647470474243,0.4120730757713318,1.4617531299591064,44.135820300000006,-63.95849655000001,15.784842450000003,-26.589281549999995,11.80225995,332.26045905,-18.673447650000004,-11.417088150000003,10.025188916876575,set #1
1970-01-01 00:00:46.137233619,3.47761869430542,0.41217130422592163,1.4615192413330078,159.43845528,328.91350908000004,121.56451827,132.91117866,41.04445371,340.24669536,43.00232235,47.495678100000006,10.075566750629724,set #1
1970-01-01 00:00:46.147172813,3.4766390323638916,0.41226083040237427,1.4613548517227173,287.48066685000003,258.65445567,58.40383809,64.1720586,-37.32677949,327.87310179,10.542543570000001,30.533220510000003,10.125944584382871,set #1
1970-01-01 00:00:46.157342557,3.4757301807403564,0.4122995138168335,1.4611743688583374,280.12226931,297.0065319,300.01596573,193.71568593,-32.40757065,341.65488864,75.27854295,62.0226399,10.17632241813602,set #1
1970-01-01 00:00:46.167117719,3.4748971462249756,0.41236087679862976,1.461044430732727,-14.800533150000001,23.27839683,63.46968264,56.86144542,-56.18557854,315.56583786,-62.40801957000001,-65.63215269,10.226700251889168,set #1
1970-01-01 00:00:46.177158718,3.4740307331085205,0.41241398453712463,1.4609953165054321,-72.35720076,138.64009457999998,94.83488742,98.67238992,-31.2374985,335.24510058,4.1423959199999985,-21.92890362,10.277078085642318,set #1
1970-01-01 00:00:46.188043718,3.47320818901062,0.4124363362789154,1.460911512374878,-138.39385794,-4.0762605,193.3939956,140.84744778,-53.55994878,314.3635014,-68.51634894,-121.49774910000001,10.327455919395467,set #1
1970-01-01 00:00:46.197836284,3.472395420074463,0.41242262721061707,1.4607561826705933,119.53838052,235.53928632,108.06968328,151.72900547999998,-86.60936232,304.40361276000004,34.94642736,19.58285472,10.377833753148614,set #1
1970-01-01 00:00:46.207199459,3.4716451168060303,0.4124392867088318,1.4607653617858887,330.49074123,440.24475885,14.629108259999995,45.35287965,-92.12728356,309.94228356,54.96495849000001,19.7498574,10.428211586901764,set #1
1970-01-01 00:00:46.217230205,3.4709341526031494,0.41244158148765564,1.4607617855072021,102.9096822,82.73889975,46.86062355,40.3106847,-47.0453178,295.68748170000003,-30.08889975,-79.47594135,10.478589420654913,set #1
1970-01-01 00:00:46.227019910,3.470256805419922,0.41241833567619324,1.4607837200164795,298.52008290000003,170.6837418,241.889934,255.733179,-161.0096358,327.834702,90.676755,33.6271689,10.52896725440806,set #1
1970-01-01 00:00:46.237217311,3.4696156978607178,0.4123821556568146,1.4608272314071655,-61.08560991,-31.674701760000005,-184.22578122,-131.56142415,-118.86596904,287.26049742000004,-91.64855934,-155.37980289,10.57934508816121,set #1
1970-01-01 00:00:46.247300748,3.4690256118774414,0.4123402237892151,1.4609113931655884,18.904991040000002,-52.94438604,-16.82477316,-102.27873240000001,-11.72062164,311.82999744000006,-83.45104716,-147.82146756,10.629722921914357,set #1
1970-01-01 00:00:46.257180099,3.468501329421997,0.4122963845729828,1.4610165357589722,374.10236448,316.35506565,133.88317839,92.98866642,-72.74044479,308.23951197,0.3720069600000002,-77.27679999,10.680100755667507,set #1
1970-01-01 00:00:46.267289285,3.4679789543151855,0.41225698590278625,1.4611517190933228,-57.852278250000005,-139.8789249,5.887672050000003,-28.2916608,-77.67823635,287.0873811,-93.77406675,-197.74805895,10.730478589420656,set #1
1970-01-01 00:00:46.277212743,3.4675233364105225,0.4122124910354614,1.461301326751709,220.50119715,466.88264337,205.86608718,207.62487798,-75.22072311000001,298.87645827,20.339383350000002,-88.62434217,10.780856423173804,set #1
1970-01-01 00:00:46.287248735,3.4671175479888916,0.41215458512306213,1.4613534212112427,-507.3416517,-351.27751620000004,-202.99925685,-256.21945635,6.8023059,275.8993458,-122.70464505000001,-223.13852535,10.831234256926953,set #1
1970-01-01 00:00:46.297175054,3.4667959213256836,0.41208887100219727,1.4614509344100952,-198.6555129,40.425985080000004,-156.71720454,-147.35594094,42.529205160000004,263.80429685999997,-94.52117532000001,-178.05883836,10.8816120906801,set #1
1970-01-01 00:00:46.308139209,3.466501474380493,0.4120160639286041,1.4616016149520874,-51.784553730000006,-227.41596774,110.70989709,71.20135464,50.63896695,297.72516228,34.225565010000004,-81.52797744,10.93198992443325,set #1
1970-01-01 00:00:46.317235355,3.4662387371063232,0.4119409918785095,1.461740493774414,291.2196846,108.54916605,379.6853034,205.79139945,-83.56240425,306.72075135,151.81494705,46.92537134999999,10.982367758186399,set #1
1970-01-01 00:00:46.327439908,3.4660158157348633,0.4118804335594177,1.4618709087371826,134.72156412,65.81569644000001,188.70920328,122.72530764,75.05728307999999,300.492309,20.918487719999998,-142.13246112,11.032745591939547,set #1
1970-01-01 00:00:46.338463668,3.4658474922180176,0.41183537244796753,1.462026834487915,310.96157664000003,76.92244092,132.69309924,90.08660699999999,51.3038994,310.09993248,15.410388239999996,-148.97798448,11.083123425692696,set #1
1970-01-01 00:00:46.347197895,3.465679883956909,0.4117734730243683,1.4621636867523193,-297.78390135,-502.1262168,-259.3894251,-261.9408441,87.9684117,280.64974665,-204.59153715,-350.68758465,11.133501259445845,set #1
1970-01-01 00:00:46.357401733,3.4655375480651855,0.4117317199707031,1.4622305631637573,-247.08520161,60.72948375,-139.11172275,-146.14746822,71.46354501,325.74016566,-7.128288180000002,-106.45202646000001,11.183879093198993,set #1
1970-01-01 00:00:46.367252473,3.465409278869629,0.4116847515106201,1.4622128009796143,-55.80664986,-131.84112981,-195.53318421,-194.56765185,319.49644818,317.12032949999997,-142.70519055000003,-309.52663755000003,11.234256926952142,set #1
1970-01-01 00:00:46.377470140,3.4652793407440186,0.41165220737457275,1.4622007608413696,103.37353259999999,-230.786595,109.3917864,10.299821999999999,-502.19117520000003,403.245141,-70.19702819999999,-203.990319,11.28463476070529,set #1
1970-01-01 00:00:46.387405042,3.4651196002960205,0.4116227328777313,1.4621657133102417,-173.65880298000002,-13.213786560000003,-359.42891166,-307.36325568,-782.01259344,334.95952854,-163.51618296,-277.98118296,11.335012594458439,set #1
1970-01-01 00:00:46.397454624,3.464932680130005,0.4115842580795288,1.4621375799179077,-215.42916096000002,-162.23241216,-62.15157312,-113.0312352,509.52657600000003,380.91910272,-174.7414032,-273.02241408000003,11.385390428211588,set #1
1970-01-01 00:00:46.407332305,3.4647445678710938,0.4115678668022156,1.4621307849884033,247.75226775,309.07095960000004,130.6909071,108.2851575,-197.1522189,439.74064095,-9.03944145,-95.10706139999999,11.435768261964736,set #1
1970-01-01 00:00:46.417537813,3.4645514488220215,0.41154202818870544,1.4621418714523315,-35.72914254,-402.86681058,-115.64307222,-146.27122458,-105.94737504,409.50478413,-131.84301663,-276.76079885999997,11.486146095717885,set #1
1970-01-01 00:00:46.427180414,3.464341878890991,0.41148078441619873,1.4621809720993042,211.70318208,518.36794386,345.07510908,327.97342266,68.52740933999999,393.72307182000003,91.9574058,-44.82199098,11.536523929471032,set #1
1970-01-01 00:00:46.437291746,3.4641287326812744,0.4114144444465637,1.4622493982315063,198.58602114,234.56593446,96.8400927,42.59901594,471.47855196,430.25344674,73.06544544,-33.6167637,11.586901763224182,set #1
1970-01-01 00:00:46.447369937,3.463895559310913,0.4113578796386719,1.4623502492904663,-524.9798420100001,-805.9818624,-469.02519729,-505.77629114999996,236.89709238,315.48297027,-255.15232236000003,-413.87688108,11.637279596977331,set #1
1970-01-01 00:00:46.457061414,3.463660717010498,0.41131672263145447,1.4624745845794678,-102.8689818,-128.06440842,230.52972696,187.86924155999998,52.12668942,316.5771843,-90.05997156000001,-133.86311718000002,11.687657430730479,set #1
1970-01-01 00:00:46.467401628,3.46341872215271,0.4112641215324402,1.4626144170761108,331.02557124000003,270.8599998,359.55534888,312.7011108,-147.3742062,282.85901592,182.37579359999998,-97.43623812,11.738035264483628,set #1
1970-01-01 00:00:46.477267627,3.4631752967834473,0.41120967268943787,1.4627504348754883,-142.40928429000002,-206.4686325,-199.90634118,-170.12692905,231.91428429,272.43185385,-75.00995112,-105.36120582,11.788413098236777,set #1
1970-01-01 00:00:46.487293605,3.4629416465759277,0.41116538643836975,1.4628899097442627,-70.4380599,-153.22349445,-130.2486549,-151.91972055,51.085476,213.39689865,-86.22511365,-251.59305990000001,11.838790931989925,set #1
1970-01-01 00:00:46.497298603,3.4627022743225098,0.4111199975013733,1.4630626440048218,-136.82144073,-257.87444865,21.20619306,-24.34798626,218.76775128,212.00291034,-68.20664136,-176.54287599,11.889168765743074,set #1
1970-01-01 00:00:46.507425432,3.462463855743408,0.41106128692626953,1.4632140398025513,-289.65279408000004,-244.79085383999998,-162.28929912,-197.57602176,277.12928256,162.54795647999998,-167.02255440000002,-251.12205455999998,11.939546599496222,set #1
1970-01-01 00:00:46.517022495,3.462183952331543,0.4110041558742523,1.4633620977401733,208.58297850000002,98.0921487,63.9117375,64.95213465,97.46410635,128.20790775,-68.20295039999999,-203.86552484999999,11.98992443324937,set #1
1970-01-01 00:00:46.527405862,3.4619126319885254,0.410940945148468,1.4634864330291748,425.49900978,487.25899872,344.32038654,308.47642566,-54.91415124,150.01874316,131.72303586,96.12948306,12.04030226700252,set #1
1970-01-01 00:00:46.537439231,3.461637496948242,0.4108771085739136,1.4635902643203735,-37.817417819999996,-190.64938542000002,-131.60219046,-150.81779154,78.84779604,106.24170531,-150.31138902,-231.86878884,12.090680100755668,set #1
1970-01-01 00:00:46.547293310,3.4613492488861084,0.41081374883651733,1.4636919498443604,93.5173434,69.7480797,26.0289432,11.204271,107.6292906,117.1765998,-43.9523019,-112.6438014,12.141057934508817,set #1
1970-01-01 00:00:46.557475690,3.4610328674316406,0.4107617139816284,1.4637986421585083,-221.88569129999996,-199.17369810000002,-130.22132760000002,-151.28261070000002,197.82762480000002,87.56319780000001,-224.4145254,-245.83889849999997,12.191435768261965,set #1
1970-01-01 00:00:46.567096834,3.4607083797454834,0.4106791019439697,1.4638944864273071,93.2557743,59.98413564,143.44013112,105.28948794,103.72331424000001,78.75313602,-81.28630068,-122.15459646,12.241813602015114,set #1
1970-01-01 00:00:46.577289705,3.460397243499756,0.41061484813690186,1.464009165763855,228.2970066,102.96244139999999,153.26718225,128.63352840000002,3.43716555,76.15723245,-62.670652200000006,-57.30184785,12.292191435768263,set #1
1970-01-01 00:00:46.587327842,3.460129976272583,0.4105466306209564,1.464112401008606,-138.36842994,58.28249466,-180.0039735,-126.33689249999999,-186.24780642000002,60.77928324,-100.1702598,-71.01246204,12.34256926952141,set #1
1970-01-01 00:00:46.597072010,3.4598968029022217,0.4104667603969574,1.4642083644866943,-380.87322,-66.5136849,-491.6740023,-363.2983107,357.8646825,18.472006800000003,-253.51697280000002,-233.2480839,12.39294710327456,set #1
1970-01-01 00:00:46.607206468,3.459677219390869,0.4103987514972687,1.464284896850586,441.31496604,311.98152336000004,422.51449656,397.26443328,90.56633352,19.5126126,-109.81509864,-88.47569328,12.443324937027707,set #1
1970-01-01 00:00:46.617140655,3.45951771736145,0.4103226959705353,1.4643657207489014,125.48944785,17.80135305,281.38799520000003,194.8568388,23.30907345,66.10425120000001,-64.2763602,-25.879770150000002,12.493702770780857,set #1
1970-01-01 00:00:46.627010707,3.459404468536377,0.4102432131767273,1.4644569158554077,192.3117573,122.32471953,-7.407481380000001,22.15443906,35.29208358,51.51466515,-198.90543504000001,-206.42400402,12.544080604534006,set #1
1970-01-01 00:00:46.637234811,3.4593749046325684,0.41014689207077026,1.4645458459854126,88.61999445000001,-75.94495506,76.3708452,45.37769262,-64.66443906,44.864085630000005,-137.63125467,-101.60044128,12.594458438287154,set #1
1970-01-01 00:00:46.647173290,3.4593911170959473,0.4100618064403534,1.4646202325820923,363.5728473,208.7127432,597.1372446,364.1515098,-36.911405699999996,58.930014,-43.0313637,-104.0797017,12.644836272040303,set #1
1970-01-01 00:00:46.657002811,3.4594814777374268,0.40998390316963196,1.464674949645996,266.11456443000003,265.7278533,426.58545228,299.64374115000004,-44.63197791,51.25759274999999,-10.59468111,-26.97468111,12.695214105793452,set #1
1970-01-01 00:00:46.667311315,3.4596457481384277,0.4099051356315613,1.4647278785705566,-249.46785240000003,-319.71138615,-251.9032659,-286.58750445,-87.0508626,21.90273345,-285.59771565,-290.82955979999997,12.7455919395466,set #1
1970-01-01 00:00:46.677220468,3.4598841667175293,0.4098116159439087,1.4647367000579834,-295.40191044,-229.57838748,-34.0668354,-105.86196504,34.92940932,77.76030444,-195.56196504,-236.12355936,12.795969773299749,set #1
1970-01-01 00:00:46.687386636,3.460211753845215,0.40971434116363525,1.4646999835968018,-137.31073356,179.56228368,-212.98817748,-249.10181868,22.47388572,112.73372292,-87.50486316,-38.72646648,12.846347607052897,set #1
1970-01-01 00:00:46.697296266,3.4606218338012695,0.4096154272556305,1.4646440744400024,77.16557784,-11.30208066,-16.986581040000004,-65.34370986,20.762423759999997,94.89978732,-84.05579052,-92.20274076000001,12.896725440806046,set #1
1970-01-01 00:00:46.707356815,3.4611153602600098,0.40950649976730347,1.4645864963531494,399.76342575,-125.74367325,454.8498942,311.35289250000005,-23.59741215,58.58600085,-119.5099386,-202.19620395,12.947103274559195,set #1
1970-01-01 00:00:46.717253093,3.4617409706115723,0.40938645601272583,1.4645086526870728,-49.67654133,-7.27069629,-64.37957409,-97.44051798,-10.07727396,59.23898682,-75.88677876,-112.92712859999999,12.997481108312343,set #1
1970-01-01 00:00:46.726847772,3.462376356124878,0.40928125381469727,1.4644737243652344,25.5078174,41.2120878,57.4506348,11.491459199999998,52.22330256,80.28689448,-5.3132975999999985,-61.44868548,13.047858942065492,set #1
1970-01-01 00:00:46.737092618,3.4631502628326416,0.40913739800453186,1.4643969535827637,134.36538180000002,69.01721034,344.80596773999997,253.12011426000004,20.5627071,65.73672612,4.325050859999999,-92.19288546,13.09823677581864,set #1
1970-01-01 00:00:46.747315292,3.4639954566955566,0.4089827239513397,1.4643052816390991,240.813612,41.903891640000005,-69.73394844,-111.77453976000001,143.90161812000002,57.64293912,-11.876239439999999,-53.52683076,13.148614609571789,set #1
1970-01-01 00:00:46.757185344,3.464994192123413,0.4088142216205597,1.4642448425292969,30.201475200000004,-142.02213792,13.22803872,-22.77296736,216.14908224,56.36172672000001,-86.788416,-245.15026848000002,13.198992443324938,set #1
1970-01-01 00:00:46.768386487,3.4660799503326416,0.40860897302627563,1.4642000198364258,-182.44839522,-130.26219102,-96.58091313,-121.79492754,159.83043804,60.85897818000001,-129.1216056,-195.0685035,13.249370277078086,set #1
1970-01-01 00:00:46.777387027,3.46726655960083,0.40839093923568726,1.4641817808151245,135.81465417,81.34830639,275.23818036,207.49728831,75.77742081,95.45281512,29.013257910000004,-51.815400780000004,13.299748110831235,set #1
1970-01-01 00:00:46.787261848,3.468566656112671,0.40813884139060974,1.4641889333724976,-41.399167680000005,-284.34144336,115.04947896,31.593198000000008,-53.45679456,66.06756936000001,-62.66294424,-172.69885776,13.350125944584384,set #1
1970-01-01 00:00:46.797188882,3.4699783325195312,0.4078432321548462,1.4642494916915894,153.24388716,-106.52258838,152.91904836,32.62560756,-47.65366398,62.889776819999994,-16.9865592,-138.26781462,13.400503778337532,set #1
1970-01-01 00:00:46.807345275,3.4715330600738525,0.4074954092502594,1.464316487312317,-25.5860865,-143.75223525,33.557823,-47.6923785,-143.020644,49.274657250000004,13.152681750000001,-103.94066475,13.450881612090681,set #1
1970-01-01 00:00:46.817054157,3.4732131958007812,0.4071074426174164,1.4644219875335693,-32.280025439999996,-401.93220521999996,-101.93784861,-99.95245299000001,-175.50878475000002,21.28936251,-29.290756950000002,-135.47784861000002,13.501259445843829,set #1
1970-01-01 00:00:46.827179079,3.4750285148620605,0.4066706895828247,1.4645780324935913,187.40541963,-7.343487840000002,414.27345141,273.42403023,-215.77165701,25.40465265,103.95783645,-49.55560779,13.551637279596978,set #1
1970-01-01 00:00:46.837349061,3.477036952972412,0.40630248188972473,1.4647502899169922,-194.27145114,-448.7828904,29.727799530000006,-10.91294841,-232.63884384,8.33354886,-4.072754790000001,-203.0572557,13.602015113350127,set #1
1970-01-01 00:00:46.847155933,3.4789774417877197,0.405796617269516,1.4651626348495483,46.54091988,-158.25011319,38.458011150000004,-13.67244879,-268.00604025,23.04569709,71.53859505,-57.3398904,13.652392947103275,set #1
1970-01-01 00:00:46.857750539,3.4812283515930176,0.40527424216270447,1.4652239084243774,283.71508269000003,-385.24289037,412.83114873,314.65726734000003,-358.41210209999997,17.7513063,77.88379131,-189.06868617,13.702770780856424,set #1
1970-01-01 00:00:46.867395048,3.483525514602661,0.4047597646713257,1.4652968645095825,-109.34715168000001,-252.67359000000002,87.4219788,0.3048271199999988,-415.79476536,-2.15883408,65.78389584,-157.39036248,13.753148614609572,set #1
1970-01-01 00:00:46.877241973,3.4858829975128174,0.40418893098831177,1.4653047323226929,-58.16235633000001,-477.39801993000003,-144.38012199000002,-208.86605103000002,-551.53159308,-3.0815265000000007,-161.49130530000002,-392.23310841,13.803526448362721,set #1
1970-01-01 00:00:46.887146835,3.4886696338653564,0.4035172760486603,1.4652454853057861,-141.04523355,-221.93866695,-58.450694250000005,-34.0342119,-551.55132825,79.8171894,97.74383385,-195.45569745,13.85390428211587,set #1
1970-01-01 00:00:46.897406702,3.4912939071655273,0.4028695225715637,1.4652599096298218,-67.96304424,-231.81071238,1.53564918,-102.71657838,-672.3489981,85.08149052,-8.275087860000001,-244.39112958,13.904282115869018,set #1
1970-01-01 00:00:46.907199029,3.4940030574798584,0.4022103250026703,1.4652050733566284,145.10841696,-92.28421956,93.00553782,14.57578044,-558.70340682,110.29427214,91.61592297,-120.33014252999999,13.954659949622167,set #1
1970-01-01 00:00:46.917065982,3.4964592456817627,0.40162622928619385,1.4658708572387695,-38.18225112,45.6923298,86.03274888,9.23363922,-721.3885083600001,95.66494782,133.52298492,-106.51916184,14.005037783375315,set #1
1970-01-01 00:00:46.927947168,3.4991085529327393,0.4009225368499756,1.4663853645324707,-95.84162015999999,-158.85808224,53.56021632,-41.42390304,-552.5365372800001,85.14511200000001,25.3204848,-219.82467936,14.055415617128464,set #1
1970-01-01 00:00:46.937878017,3.5021820068359375,0.40006816387176514,1.4663516283035278,99.38844006,-7.596470310000015,-15.20058696,-49.031241869999995,-533.50066575,100.00726905,187.707663,-85.30696473,14.105793450881613,set #1
1970-01-01 00:00:46.947334651,3.5049831867218018,0.3992275297641754,1.4671438932418823,-72.68258322,-135.43738884,103.41320847,39.20143071,-779.61770835,58.60893051,136.60945857,-103.74101361000001,14.15617128463476,set #1
1970-01-01 00:00:46.957544689,3.5083556175231934,0.3982096314430237,1.4672117233276367,-139.87560911999998,-108.41417847,44.126838989999996,-10.73888361,-2030.14159842,-9.39560427,110.01157323,-171.10113579,14.20654911838791,set #1
1970-01-01 00:00:46.967309837,3.511502504348755,0.3971520960330963,1.4680994749069214,2.6245537499999987,-69.44174718000001,154.1235501,74.90687724,-488.95750995,8.90475846,215.88418215,-100.89234207,14.25692695214106,set #1
1970-01-01 00:00:46.977845315,3.5154950618743896,0.39594048261642456,1.4680651426315308,-127.34177235,57.697949400000006,93.5158887,45.81098145,-257.0197656,16.2958887,234.9567285,-23.7241602,14.307304785894207,set #1
1970-01-01 00:00:46.987508897,3.5190987586975098,0.39474213123321533,1.4687613248825073,-155.39346927,-44.15047338,36.89316813,-34.926508500000004,-322.84088343,-104.9793966,138.53883654,-154.27760751000002,14.357682619647356,set #1
1970-01-01 00:00:46.997186784,3.5233240127563477,0.3933500349521637,1.4687895774841309,-76.33468128,-115.49720832,40.957899839999996,-2.53946784,-922.5647808,-227.93832672,134.08372224000001,-194.64143712,14.408060453400504,set #1
1970-01-01 00:00:47.007149343,3.527719259262085,0.391818106174469,1.4687353372573853,28.885623000000002,64.75047891,308.74767924,174.89893707000002,-759.84207156,-299.79095015999997,228.69702492000002,-36.60152652000001,14.458438287153653,set #1
1970-01-01 00:00:47.017202024,3.532315731048584,0.39021816849708557,1.468642234802246,18.131493120000002,-68.17252416,253.7407548,124.15053768,-546.01359384,-403.42152552,170.20517904000002,-170.37518472,14.508816120906802,set #1
1970-01-01 00:00:47.027285699,3.537094831466675,0.38846638798713684,1.4685864448547363,77.49903642,249.57169575,257.17715478,203.74753035,-318.79636191,-289.68675645,223.66512519,-68.44495827,14.55919395465995,set #1
1970-01-01 00:00:47.037238245,3.542039394378662,0.3865913152694702,1.468512773513794,-171.0547722,212.21314335,-7.861146150000001,-72.22031505,-217.26544905,-349.81043565,81.86332440000001,-171.4349598,14.6095717884131,set #1
1970-01-01 00:00:47.048048381,3.5471761226654053,0.38456103205680847,1.4684468507766724,-7.052749859999999,284.02630776,136.6002885,79.97474043000001,-138.65124039,-368.78288460000005,60.36167631,-184.04850321,14.659949622166247,set #1
1970-01-01 00:00:47.057334547,3.5519280433654785,0.3825700283050537,1.4689111709594727,126.76482702,185.38536041999998,138.44494716,93.99204711,13.620807330000002,-408.90790005,34.078140330000004,-207.96576645,14.710327455919396,set #1
1970-01-01 00:00:47.067312126,3.557469129562378,0.38031724095344543,1.4687122106552124,9.49339794,-78.57713994,63.318373560000005,23.9082285,68.73808344000001,-403.7918742,27.50900256,-187.90820412000002,14.760705289672545,set #1
1970-01-01 00:00:47.077211742,3.5632357597351074,0.3779316842556,1.4685466289520264,-262.56365148,-288.80119164,-7.3155958199999995,-55.4612682,364.66726374,-428.4844434,-26.91694434,-263.13063504,14.811083123425693,set #1
1970-01-01 00:00:47.087329750,3.5687711238861084,0.3755604922771454,1.4687613248825073,-208.0130325,-161.45141999999998,177.64392750000002,59.9337375,417.52083749999997,-456.44322750000003,104.005005,-177.138195,14.861460957178842,set #1
1970-01-01 00:00:47.097449426,3.575014352798462,0.3729158043861389,1.4683865308761597,-172.07367527999997,-97.88050116,203.4679491,154.36921188000002,460.62454698,-526.87475334,82.98801888,-219.30142884,14.911838790931991,set #1
1970-01-01 00:00:47.107194309,3.5813539028167725,0.37020665407180786,1.4679603576660156,-56.95109745,-120.43136703,45.793609290000006,87.56609745,529.65424317,-572.1078051000001,80.57209563,-298.87380783000003,14.962216624685139,set #1
1970-01-01 00:00:47.117384319,3.5878756046295166,0.3673646152019501,1.467482566833496,-355.83040896,-299.48292231000005,-157.80560172,-145.99331955,547.84572024,-650.04979845,50.63734143,-239.23893006,15.012594458438288,set #1
1970-01-01 00:00:47.127437715,3.594534397125244,0.36437729001045227,1.4669774770736694,11.706850350000003,-69.1905045,202.52273535,124.18534245000001,470.01281144999996,-715.6716079500001,-2.8737345000000003,-267.98945745000003,15.062972292191436,set #1
1970-01-01 00:00:47.137188558,3.601189136505127,0.36129528284072876,1.4664254188537598,-242.18260326,-237.57455124,-163.45052802,-196.46836794,426.6046785,-779.9322694800001,-121.26530364000001,-367.14459366,15.113350125944585,set #1
1970-01-01 00:00:47.147486810,3.607879877090454,0.35818085074424744,1.4658507108688354,107.5823736,-39.8464872,339.4107912,199.1080533,130.25952420000002,-797.7192795,-0.3703751999999998,-213.0639342,15.163727959697734,set #1
1970-01-01 00:00:47.157782917,3.6144683361053467,0.35516971349716187,1.4653688669204712,-96.10919877,-71.20199502,308.72198916,189.03846858000003,28.96270104,-750.8957550900001,-17.07810312,-281.07268566,15.214105793450882,set #1
1970-01-01 00:00:47.167238836,3.6213130950927734,0.3517645299434662,1.464852213859558,-278.89832412000004,-245.35304195999998,35.07787608000001,-57.6236388,98.68634412,-674.56145796,-48.31196292,-394.44488616,15.264483627204031,set #1
1970-01-01 00:00:47.177173023,3.628466844558716,0.3481203317642212,1.4642196893692017,82.93646439,-61.50866436,93.49183779,20.406209460000003,53.97672189,-524.40290214,-141.9065193,-344.68530213,15.314861460957179,set #1
1970-01-01 00:00:47.187269334,3.6353564262390137,0.3446660041809082,1.4639294147491455,8.15565192,81.06847788,161.6367792,98.20145712,173.02061166000001,-427.90383246,-210.45390522,-359.7022143,15.365239294710328,set #1
1970-01-01 00:00:47.197220211,3.642016649246216,0.3410990238189697,1.463611364364624,-463.9005618,-385.65969663,-153.23849385,-165.38997111,161.25088122,-345.30058641,-367.64470626,-471.47353344000004,15.415617128463477,set #1
1970-01-01 00:00:47.207165842,3.64882493019104,0.33739906549453735,1.4631078243255615,-181.0401489,19.24028886,106.7518374,0.9025699800000009,65.88587849999999,-194.02885944000002,-209.35470816,-329.06734068000003,15.465994962216625,set #1
1970-01-01 00:00:47.217111473,3.655533790588379,0.33361199498176575,1.4625709056854248,240.49957659,244.13364885000001,306.67931502,240.61524903,80.88943356,-68.85483189,-188.19737235,-327.24126396,15.516372795969774,set #1
1970-01-01 00:00:47.227397565,3.662177562713623,0.32973530888557434,1.461972713470459,112.4183931,133.3510113,-176.35515105,-245.62206435,-36.068288100000004,10.216293750000002,-277.18964325,-347.3105649,15.566750629722923,set #1
1970-01-01 00:00:47.237359647,3.6688311100006104,0.3257794976234436,1.461452841758728,-248.85818958000002,-218.79051909,123.56064590999999,13.054061279999999,142.13090775,55.1267262,-220.76432820000002,-446.01667344000003,15.617128463476071,set #1
1970-01-01 00:00:47.247594480,3.6753783226013184,0.3217341899871826,1.4610390663146973,100.4038776,115.5385296,256.1467584,171.16485360000001,210.80741759999998,92.592708,-34.481460000000006,-276.36716640000003,15.66750629722922,set #1
1970-01-01 00:00:47.257359867,3.6817095279693604,0.3177367150783539,1.460662841796875,187.79140614,125.83960466999999,304.59934323000004,224.51868192,34.15699755,100.16142747,-71.47869417,-328.20670116,15.717884130982368,set #1
1970-01-01 00:00:47.267362957,3.688007116317749,0.3136492073535919,1.4604123830795288,141.50619561,37.51806279,135.15185892,43.309773390000004,-188.10052403999998,132.61587261,-127.82216382,-388.66284444,15.768261964735517,set #1
1970-01-01 00:00:47.277074222,3.694139242172241,0.30954769253730774,1.4602409601211548,339.9942312,245.85047681999998,288.4778208,231.4754169,-488.62563905999997,126.3036645,-24.03542934,-291.47940588,15.818639798488666,set #1
1970-01-01 00:00:47.287131433,3.70017409324646,0.30535972118377686,1.4601242542266846,190.36818918,334.68717867000004,86.8747503,-43.88209332,-404.87294484,157.97686203,-135.03494745,-351.00925626000003,15.869017632241814,set #1
1970-01-01 00:00:47.297317867,3.7060513496398926,0.30114126205444336,1.4600290060043335,52.56708717,143.43168489,-3.2617895699999977,-0.4688611199999997,-436.83754179,166.75795188,-144.51147086999998,-428.21972583,15.919395465994963,set #1
1970-01-01 00:00:47.307311897,3.711798906326294,0.2968843877315521,1.4599250555038452,42.98654256,341.07130941,-47.48844906,-118.77003801,-473.62365258,187.01190261,-193.65443643,-451.95607626,15.96977329974811,set #1
1970-01-01 00:00:47.317197446,3.7174248695373535,0.29260560870170593,1.459916591644287,-79.42859418,313.97835066,80.67789756,2.81351538,-498.4755516,308.97194484,-231.88335066,-529.06220094,16.020151133501262,set #1
1970-01-01 00:00:47.327371006,3.7228939533233643,0.288268119096756,1.4599008560180664,109.25678321999999,401.49670158000004,151.91215572000002,56.60792592,-356.58714312,395.9146191,-198.68399538,-457.57545834,16.070528967254408,set #1
1970-01-01 00:00:47.337249879,3.7282066345214844,0.2839318811893463,1.4598468542099,47.696234430000004,449.68595022,-30.22528314,-121.86886530000001,-302.74311561,473.35839447,-178.71915165000001,-462.82801695,16.120906801007557,set #1
1970-01-01 00:00:47.347250823,3.733504056930542,0.27947789430618286,1.4597508907318115,-84.46364120999999,228.92125893000002,-234.40387659,-301.84498929,-122.51199714,503.4675321,-396.15694364999996,-651.0187339500001,16.171284634760706,set #1
1970-01-01 00:00:47.357262020,3.738551139831543,0.27518388628959656,1.4598349332809448,-234.349791,94.22797800000001,-152.4010254,-194.838852,28.87957020000001,585.7697430000001,-108.4612776,-488.3371974,16.221662468513856,set #1
1970-01-01 00:00:47.367071275,3.7434937953948975,0.2707873582839966,1.4599589109420776,55.35987600000001,383.66486925000004,109.99018875,-31.945367999999995,51.02170125,655.312866,-19.23083175,-390.8166015,16.272040302267005,set #1
1970-01-01 00:00:47.377578144,3.7484049797058105,0.26625630259513855,1.4599268436431885,119.53476288,361.01809536,470.77499040000004,201.11641056,43.19857152,679.58477184,28.13713344,-339.07357536,16.32241813602015,set #1
1970-01-01 00:00:47.387657527,3.7532637119293213,0.26171863079071045,1.4599734544754028,-30.67098567,113.78920917,137.25671349,37.23765045,-14.09577936,671.0671289400001,12.84881949,-485.0341977,16.3727959697733,set #1
1970-01-01 00:00:47.397429828,3.758042097091675,0.2571472227573395,1.4601224660873413,67.7939808,256.49612196,-205.19549856,-170.68042212,122.82583404,659.84561916,-107.68131815999999,-555.0729132,16.42317380352645,set #1
1970-01-01 00:00:47.407460098,3.7627432346343994,0.2525237202644348,1.4603215456008911,-187.01005128,-27.97011204,-4.841350799999997,-78.06989112,199.05718794,696.25162932,-67.46303772,-580.19489112,16.4735516372796,set #1
1970-01-01 00:00:47.417715435,3.76719331741333,0.24809201061725616,1.4606834650039673,211.7202438,275.61435525,57.527416049999985,-112.38474975,83.67254805,777.8205981000001,32.599041150000005,-341.16831255,16.523929471032748,set #1
1970-01-01 00:00:47.427247171,3.771843194961548,0.24337169528007507,1.4608224630355835,275.90362839,350.44217403,449.27848797,278.18184303000004,155.94994233,805.61050401,82.26200853,-386.75422266,16.574307304785894,set #1
1970-01-01 00:00:47.437402610,3.7764527797698975,0.23856200277805328,1.461086392402649,-118.6842111,-59.2076121,45.2396217,-105.135537,257.1999105,835.4258055,2.489951099999999,-400.0989057,16.624685138539043,set #1
1970-01-01 00:00:47.447380428,3.781000852584839,0.23368775844573975,1.4613299369812012,100.823346,159.34469772,-134.89385364,-188.96358936,146.15722056,825.80401332,-104.84606652,-410.44064255999996,16.675062972292192,set #1
1970-01-01 00:00:47.457285051,3.785479784011841,0.22879113256931305,1.4615670442581177,-329.67817974,-225.10513272,-195.95905953,-231.83362722,133.32784413000002,852.39424725,-102.08512704,-397.16376375,16.72544080604534,set #1
1970-01-01 00:00:47.467303161,3.789914131164551,0.22387388348579407,1.4618269205093384,150.03961323,154.34305887000002,53.38181706,-11.25284238,368.20819386,848.9560326000001,18.964311600000002,-300.41206884,16.77581863979849,set #1
1970-01-01 00:00:47.477442388,3.7943475246429443,0.21888571977615356,1.4621829986572266,345.44708952,245.74667676,385.756566,255.15150336000002,473.74894631999996,878.3049116400001,64.89261636,-239.89319796,16.826196473551637,set #1
1970-01-01 00:00:47.487611417,3.7987022399902344,0.2138041853904724,1.4625837802886963,61.12455843,150.70708458000001,303.93120069,194.90958981,57.11646369,817.02666318,-20.8864734,-306.88790496,16.876574307304786,set #1
1970-01-01 00:00:47.497433547,3.8030357360839844,0.2086704671382904,1.4629268646240234,-114.37633272,-20.986165980000003,287.9041659,108.18816606,-61.66574973,739.2659168700001,167.42816766,-171.29791575000002,16.926952141057935,set #1
1970-01-01 00:00:47.507079010,3.807140350341797,0.20384101569652557,1.4634884595870972,180.5663808,142.9424256,172.2747507,139.91625960000002,-95.682444,702.9455784,149.6611545,-184.7325675,16.977329974811084,set #1
1970-01-01 00:00:47.517143135,3.8115077018737793,0.198526069521904,1.4638786315917969,119.10327975,31.531367400000004,-191.072778,-190.48550235,-9.44411325,632.3208333,63.99913455000001,-323.60655990000004,17.027707808564234,set #1
1970-01-01 00:00:47.527492647,3.8158156871795654,0.193133145570755,1.4643042087554932,217.51389309,103.39301037000001,441.86999688,267.72639387,-141.91122776999998,819.5448448200001,198.98889465,-93.24441515999999,17.07808564231738,set #1
1970-01-01 00:00:47.537349824,3.820037841796875,0.1877145916223526,1.4646745920181274,294.93791808000003,98.32003584,627.5054198400001,448.61873472,-123.22482432,731.09084256,200.03636640000002,-115.4599056,17.12846347607053,set #1
1970-01-01 00:00:47.547189836,3.824108123779297,0.1825045794248581,1.4653187990188599,166.63371036,79.10466564000001,284.9768454,191.77413372,53.896713,551.40808944,-6.716567520000001,-316.08157620000003,17.178841309823678,set #1
1970-01-01 00:00:47.557268505,3.8283097743988037,0.17693156003952026,1.4658210277557373,-104.69434559999999,-169.1957592,178.29735105,151.70432745,87.61216619999999,410.6479221,-60.00679815,-206.21264235,17.229219143576827,set #1
1970-01-01 00:00:47.567217235,3.83245587348938,0.17126186192035675,1.4663496017456055,326.4509898,126.50072175,516.06273225,308.55473220000005,-55.9887939,327.8223195,12.810876,-226.3873092,17.279596977329977,set #1
1970-01-01 00:00:47.577318315,3.836512804031372,0.16558723151683807,1.466856598854065,465.245001,232.55957205,269.10857025,169.8915699,57.989856599999996,171.22814280000003,12.820142400000002,-277.46628585,17.329974811083122,set #1
1970-01-01 00:00:47.588179712,3.8405351638793945,0.15988105535507202,1.4673781394958496,74.91102528,-83.7647616,64.330344,-31.231499520000003,-26.08604544,44.21017536,74.17436832,-202.94431872,17.38035264483627,set #1
1970-01-01 00:00:47.597196226,3.8444607257843018,0.15413199365139008,1.467950701713562,-14.911332540000004,-217.70027214,342.42276354,144.76933458000002,-89.24891352,-74.97490494,109.48399176,-197.83379616000002,17.43073047858942,set #1
1970-01-01 00:00:47.607258205,3.848191022872925,0.14856263995170593,1.468747615814209,258.3700275,67.71632205,25.994026500000004,-28.052579100000003,-59.322313050000005,-252.1481937,27.1042122,-211.16488965,17.48110831234257,set #1
1970-01-01 00:00:47.617482547,3.8518967628479004,0.14272555708885193,1.4692662954330444,-36.12264669,-203.83827983999998,-36.538005270000006,-113.99863214999999,-692.30012163,-241.15321464000002,179.42797392000003,-103.12261283999999,17.53148614609572,set #1
1970-01-01 00:00:47.627221469,3.855543851852417,0.13687819242477417,1.4697933197021484,342.65311704,187.75150329,441.85457355,310.39769904,-1299.75387789,-383.28252339,277.90562202,-112.27615893000001,17.58186397984887,set #1
1970-01-01 00:00:47.637287979,3.8589890003204346,0.13125105202198029,1.4705523252487183,-137.37892272,-241.51150218,-45.71143863000001,-44.74982772,-219.39172632000003,-671.38010706,121.46000334,-201.16994313,17.632241813602015,set #1
1970-01-01 00:00:47.647202615,3.862410068511963,0.12526120245456696,1.471132516860962,46.569379350000006,-65.69073225000001,58.31397,9.133176000000002,-178.7933004,-642.8257816500001,232.46296515,-57.76075695,17.682619647355164,set #1
1970-01-01 00:00:47.657628898,3.865668773651123,0.11936323344707489,1.471839189529419,77.25042858,-67.55997768,137.79529998,77.88327612,273.22256988000004,-644.5483824,124.39136970000001,-158.56579206,17.732997481108313,set #1
1970-01-01 00:00:47.667479162,3.868834972381592,0.11342021822929382,1.4724582433700562,14.819563199999997,-156.71537856,-317.52580079999996,-230.6284617,350.78879004000004,-638.42174214,54.997995780000004,-183.64940958,17.783375314861463,set #1
1970-01-01 00:00:47.677071218,3.872002601623535,0.10727734863758087,1.473069429397583,534.07301922,326.1694956,465.16770456,426.78087270000003,380.97444995999996,-543.6414227399999,219.27769656,-21.218027220000003,17.833753148614612,set #1
1970-01-01 00:00:47.687286262,3.8749852180480957,0.10121192038059235,1.4738587141036987,358.90079862,188.71501662,187.92966348000002,74.65222986,367.69125354,-551.49875118,218.20001190000002,31.696528500000014,17.884130982367758,set #1
1970-01-01 00:00:47.697313909,3.877986192703247,0.09490668773651123,1.474441647529602,52.70499117,-42.85894314,304.24305405,173.5659315,382.4581176,-540.79289511,116.34756666,-17.742015719999998,17.934508816120907,set #1
1970-01-01 00:00:47.707185869,3.880899667739868,0.08859892189502716,1.4750745296478271,11.76740019,-50.64575412000001,-12.587626739999997,-9.86233365,367.71364227000004,-592.64273289,-56.786091569999996,-123.09751584,17.984886649874056,set #1
1970-01-01 00:00:47.717303161,3.8836915493011475,0.08242698013782501,1.4760158061981201,131.40365121,43.89236319,55.541922930000005,78.18041478,202.10124909,-549.1020724800001,-12.027253679999994,-126.10953537,18.035264483627206,set #1
1970-01-01 00:00:47.727260475,3.886483669281006,0.07601487636566162,1.4767903089523315,-53.146782,-92.79251475000001,43.11239400000001,-13.402476749999991,311.380134,-511.43243775,-28.052514750000004,-117.51775425,18.085642317380355,set #1
1970-01-01 00:00:47.737226610,3.889122724533081,0.06976552307605743,1.4776976108551025,170.4409005,95.3071392,489.3549804,379.2484566,313.4003028,-480.1629768,85.50500790000001,-38.8068993,18.1360201511335,set #1
1970-01-01 00:00:47.747561817,3.89174747467041,0.06349241733551025,1.4785645008087158,99.41097465,16.86497163,-47.896211220000005,-85.36245081,60.01963851,-495.43612794,-122.37781413,-159.99789741,18.18639798488665,set #1
1970-01-01 00:00:47.757330541,3.894324779510498,0.05713421106338501,1.4794539213180542,548.49776748,290.0061762,672.50674296,578.8358901,77.94595731000001,-451.96351317,182.86126794,69.63235695,18.2367758186398,set #1
1970-01-01 00:00:47.767054681,3.8968162536621094,0.0507538765668869,1.4803599119186401,130.66648413000001,42.60548487,241.49401731,277.35527469000004,219.43009218,-445.4040708,109.38046275,-10.30381638,18.28715365239295,set #1
1970-01-01 00:00:47.777164821,3.899237632751465,0.044356975704431534,1.481226921081543,370.75993149000004,153.1696608,185.22574355999998,153.23710584,281.94574356000004,-444.89599050000004,116.02997016,79.00322118,18.337531486146098,set #1
1970-01-01 00:00:47.786972646,3.901609420776367,0.03799312189221382,1.4820737838745117,371.51685713999996,217.0709073,275.23466412,128.58450774,158.1668478,-512.45876838,3.3521389200000016,-32.53976076000001,18.387909319899244,set #1
1970-01-01 00:00:47.797554616,3.903909206390381,0.031612180173397064,1.4829953908920288,-5.61996552,-118.28736504,-177.72057888,-209.52784943999998,102.41127623999999,-613.19942112,-31.22459808,-69.14790792000001,18.438287153652393,set #1
1970-01-01 00:00:47.807450418,3.9061343669891357,0.025143275037407875,1.4838721752166748,-96.17507874,-130.99969584,-79.54510278000001,-176.71148352,-170.77503066,-709.4083698000001,-119.57344853999999,-27.65132604,18.488664987405542,set #1
1970-01-01 00:00:47.816987638,3.9082934856414795,0.018714096397161484,1.4847207069396973,769.3459519200001,480.98855766,1262.97764268,1097.01611682,-220.80319092,-652.7710659600001,407.5891755,155.60147928,18.53904282115869,set #1
1970-01-01 00:00:47.827297811,3.9104342460632324,0.012231998145580292,1.485543131828308,282.82389837,176.23146372,644.3487141,444.65276427000003,-159.12449748,-721.6696176300001,177.51985875,34.442205720000004,18.58942065491184,set #1
1970-01-01 00:00:47.837294225,3.912510871887207,0.005803157575428486,1.4864445924758911,-108.84106349999999,-151.5192705,-150.23109075000002,-102.005514,-5.0664412500000005,-737.00635125,39.054882750000004,-37.6427025,18.639798488664987,set #1
1970-01-01 00:00:47.847133760,3.9145078659057617,-0.00058702751994133,1.4873119592666626,-68.46746399999999,-90.684984,-178.7081712,-208.37419200000002,266.927544,-992.7723312,-56.294160000000005,22.4560128,18.690176322418136,set #1
1970-01-01 00:00:47.857252244,3.9164140224456787,-0.006919871084392071,1.4880589246749878,240.33658896,114.42470676,443.97474264,335.94052752000005,134.70195648,-718.6208655600001,148.01339436,8.99764788,18.740554156171285,set #1
1970-01-01 00:00:47.867462759,3.9182920455932617,-0.013238150626420975,1.4887562990188599,160.60712499000002,121.30022853,-344.31834723,-275.19665277,247.75785606,-645.20713257,68.28119571,59.29452399,18.790931989924434,set #1
1970-01-01 00:00:47.877655630,3.9200778007507324,-0.019496623426675797,1.4895390272140503,-344.0497398,-349.1017023,187.9424157,106.2555546,247.72863180000002,-539.2344399,71.2874994,-63.6281841,18.841309823677584,set #1
1970-01-01 00:00:47.887246494,3.921786069869995,-0.025699995458126068,1.4902842044830322,-31.13944235999999,-48.32804573999999,145.59027755999998,42.79457988,272.92889832,-525.78794814,143.82226872,72.9508182,18.89168765743073,set #1
1970-01-01 00:00:47.897238378,3.9234120845794678,-0.031886808574199677,1.4909697771072388,-14.027491919999996,9.116367779999997,331.42688436000003,233.49791166,64.67422806,-539.29324332,145.66903728,69.37196214000001,18.94206549118388,set #1
1970-01-01 00:00:47.907529478,3.924992561340332,-0.037998367100954056,1.491606593132019,-546.46747974,-477.47240814,-865.4535084,-776.7253556400001,50.269284,-705.9995155199999,-512.6789499,-396.03446064,18.992443324937028,set #1
1970-01-01 00:00:47.917141799,3.926522970199585,-0.044062670320272446,1.4922631978988647,-237.98502039,-147.50192379,212.93586405,215.34849804,339.78347871000005,-625.60395456,100.16767371,67.36991235,19.042821158690177,set #1
1970-01-01 00:00:47.927485828,3.927983045578003,-0.05016476288437843,1.4928297996520996,-176.662239,-92.60773703999999,-299.70470088,-377.75270364000005,299.89099608000004,-623.54299332,-187.35736967999998,-75.01283868,19.093198992443327,set #1
1970-01-01 00:00:47.937959794,3.9293441772460938,-0.056147634983062744,1.493303894996643,-485.31039024,-338.09944974,1.0497723600000022,79.86796896,260.22489246,-571.71628566,55.75632816,37.81833666,19.143576826196476,set #1
1970-01-01 00:00:47.948384408,3.930640935897827,-0.06207175552845001,1.4936585426330566,-147.86765448,-159.18497088,112.5518004,30.214616640000003,62.59079424,-602.7995438400001,-228.86389032,-165.83906664,19.193954659949622,set #1
1970-01-01 00:00:47.957269792,3.9318861961364746,-0.06788983941078186,1.4940855503082275,-224.60840064,-138.46386528,-468.10806432,-410.27067744,138.90544512,-554.584056,-199.25585472,-43.50570432,19.24433249370277,set #1
1970-01-01 00:00:47.966889743,3.9330344200134277,-0.0736195519566536,1.4944227933883667,-53.52803703,-79.99206072000001,264.7399287,178.32593376,107.09397308999999,-512.15801403,-114.64805313,-16.0050345,19.29471032745592,set #1
1970-01-01 00:00:47.977366809,3.934131622314453,-0.07936246693134308,1.4946541786193848,-270.97163496,-315.87024885,156.48392916,93.89392506,196.16583675,-447.03111101999997,-66.94914603000001,-62.68053870000001,19.34508816120907,set #1
1970-01-01 00:00:47.988353853,3.935162305831909,-0.08495721966028214,1.4948099851608276,118.0651602,54.99604539,229.88807868,141.10279833,155.18148594000002,-350.06075168999996,195.83751798,178.37750463,19.39546599496222,set #1
1970-01-01 00:00:47.997316246,3.936098337173462,-0.0903988853096962,1.4949462413787842,-144.48916326,-128.54099154,-756.79685796,-583.78786674,10.81327338,-357.88651548,-79.37792148,18.91560996,19.445843828715365,set #1
1970-01-01 00:00:48.007995967,3.9370288848876953,-0.09593790769577026,1.495088815689087,10.732792590000003,24.71463228,-41.62787109,-136.67147871,92.79015135,-268.93016592000004,46.52167377,62.54313117000001,19.496221662468514,set #1
1970-01-01 00:00:48.017218236,3.937808036804199,-0.10125570744276047,1.4951918125152588,163.26920064,119.23476084,207.63651168,52.38471732,124.95562872,-407.71817892,-82.1224248,2.7048995999999974,19.546599496221663,set #1
1970-01-01 00:00:48.027389411,3.938582420349121,-0.10658743977546692,1.495114803314209,34.31132679,86.24046015,462.65289564,335.88823476000005,333.84831012,-276.85516443,321.73936743,42.19428408,19.596977329974813,set #1
1970-01-01 00:00:48.038336162,3.9393420219421387,-0.11185754835605621,1.4950995445251465,119.85068472,80.80893912,280.2377487,35.203945919999995,-77.24188836,-136.19909472,88.29201186000002,-30.0976962,19.647355163727962,set #1
1970-01-01 00:00:48.047148828,3.9400463104248047,-0.11714626103639603,1.4951328039169312,-108.15092808,-69.10599228,457.02867756,294.06655356,-182.28628392,-0.20612435999999956,151.8783474,0.8688279599999991,19.697732997481108,set #1
1970-01-01 00:00:48.057508354,3.9406888484954834,-0.12240119278430939,1.4950859546661377,127.50900084000001,117.7953231,261.40738884,122.16158214,348.8899986,172.92964494,95.52212826,14.17877292,19.748110831234257,set #1
1970-01-01 00:00:48.067302350,3.9412941932678223,-0.12758173048496246,1.494990348815918,194.90760900000004,174.682599,546.8291790000001,350.4396285,32.5321035,329.843358,319.673406,148.540899,19.798488664987406,set #1
1970-01-01 00:00:48.077410345,3.9418702125549316,-0.132734015583992,1.4949966669082642,-343.9033611,-322.0458735,-613.6260312,-487.5914901,-60.34240875,335.20634745,-2.1450292500000074,-57.06374115,19.848866498740556,set #1
1970-01-01 00:00:48.087692384,3.9423816204071045,-0.13785521686077118,1.4950568675994873,1.5233337599999963,37.7331552,44.71116,-85.13223264000001,169.16741088,478.30375008,188.23672607999998,92.11309536,19.899244332493705,set #1
1970-01-01 00:00:48.097731952,3.9428043365478516,-0.14293095469474792,1.495076060295105,179.78345424,219.06683136,111.62493888,44.8502184,-47.994242400000005,625.5321009600001,196.99325568,125.26715135999999,19.94962216624685,set #1
1970-01-01 00:00:48.107165222,3.943188190460205,-0.14796334505081177,1.495067834854126,-256.40937426,-191.5233918,130.57521516,73.08422706,8.117525519999997,695.2852803,205.03330692,121.77844848000001,20.0,set #1
1970-01-01 00:00:48.117107515,3.943545341491699,-0.15293405950069427,1.4951914548873901,81.31278285,185.40854865,-638.7599673000001,-549.17794035,130.9422231,646.2137448,-220.75945710000002,-166.40131365,20.05037783375315,set #1
1970-01-01 00:00:48.127479677,3.943848133087158,-0.15795724093914032,1.4953440427780151,222.61672173,428.85376053000005,206.64844941,186.92825541000002,110.89951821,782.13707403,108.88264413000002,41.83923042,20.1007556675063,set #1
1970-01-01 00:00:48.137897853,3.9440929889678955,-0.16294258832931519,1.495417833328247,-446.20846725,-196.51191768,-732.62768826,-610.46558196,16.28142126,787.53357033,-176.21529939,-148.89436614,20.151133501259448,set #1
1970-01-01 00:00:48.147254352,3.9442946910858154,-0.16788111627101898,1.495476484298706,-131.06261999999998,179.61839376,-55.64515008000001,0.5555908800000111,-15.221693759999999,861.35460528,-18.507265920000002,-38.2294224,20.201511335012594,set #1
1970-01-01 00:00:48.157269363,3.9444777965545654,-0.17267930507659912,1.4955836534500122,-227.06726679,10.23061884,257.32641987,157.18502748,-31.35876003,876.93345519,168.39640155,177.89201352,20.251889168765743,set #1
1970-01-01 00:00:48.167519454,3.944607734680176,-0.17745834589004517,1.4957315921783447,-51.35060034000001,86.84676312,392.42681166,369.70910184,-7.80972504,893.0301237000001,170.97865746,98.21636916,20.302267002518892,set #1
1970-01-01 00:00:48.177236919,3.9446284770965576,-0.18217508494853973,1.4958429336547852,222.60573777000002,343.81411232999994,791.49340569,623.19022545,-194.58389574,930.89773413,371.99044623,346.1863782,20.35264483627204,set #1
1970-01-01 00:00:48.187152032,3.9446234703063965,-0.18674221634864807,1.4958947896957397,226.69178688,272.8476192,992.9268959999999,772.2325977600001,-96.23264352,928.15811712,570.3201004800001,523.9386796800001,20.40302267002519,set #1
1970-01-01 00:00:48.197985534,3.944603681564331,-0.19116832315921783,1.4959977865219116,-496.71637782,-341.15265054,-518.3090445,-507.06962513999997,11.92957038,789.56628348,-131.89958652,-59.407600200000005,20.453400503778337,set #1
1970-01-01 00:00:48.208121423,3.9445197582244873,-0.19554980099201202,1.496090292930603,-121.52616645,113.02279091999999,390.49708698,264.73279092,18.86779713,860.47648479,134.2162575,140.70977270999998,20.503778337531486,set #1
1970-01-01 00:00:48.217161540,3.9443368911743164,-0.1998247504234314,1.4962091445922852,253.66802760000002,399.84306960000004,463.36794660000004,217.70409180000001,-60.90303960000001,888.5940257999999,241.88424780000003,242.3642208,20.554156171284635,set #1
1970-01-01 00:00:48.227363233,3.9441230297088623,-0.20395678281784058,1.496286153793335,323.59678260000004,390.20989566000003,448.57847774999993,304.97226045,180.80690433,907.2054521399999,207.00228665999998,224.42935632,20.604534005037785,set #1
1970-01-01 00:00:48.237583999,3.9439122676849365,-0.2080584168434143,1.4963395595550537,423.3758607,369.30785151000003,859.16425686,875.0199081,243.14168385,864.7938468,263.12378079,201.39138552,20.654911838790934,set #1
1970-01-01 00:00:48.247111682,3.9436745643615723,-0.21209922432899475,1.4964503049850464,233.40740436,69.65950368,841.59499944,864.20150076,-9.19452924,824.1591157800001,394.48921746,184.20739818,20.705289672544083,set #1
1970-01-01 00:00:48.257183914,3.94338059425354,-0.2160378098487854,1.496617078781128,17.189397420000006,185.53253628000002,179.50130094,5.515158480000004,-4.307376059999996,741.15704052,85.35388134,128.09903808,20.75566750629723,set #1
1970-01-01 00:00:48.267298822,3.9430902004241943,-0.21994119882583618,1.496598243713379,-200.9735364,27.465033180000013,-538.2632002800001,-421.25498142000004,86.1325725,688.9625652,6.178589819999999,85.3502754,20.806045340050378,set #1
1970-01-01 00:00:48.277754907,3.942811965942383,-0.2237212210893631,1.496675729751587,-110.58161283000001,4.747791750000005,-632.94531261,-548.23846272,86.02109061,709.97616339,-0.7039519499999969,126.6196659,20.856423173803528,set #1
1970-01-01 00:00:48.287896280,3.942512035369873,-0.22746752202510834,1.4968656301498413,171.7925352,335.9245032,161.03480639999998,158.6755092,507.198822,812.5298376000001,144.2493312,178.4396172,20.906801007556677,set #1
1970-01-01 00:00:48.297343616,3.9421675205230713,-0.23114487528800964,1.4970345497131348,422.32651968,263.55959136,37.49750783999998,188.97056256000002,-450.10696224000003,510.7631568,100.3234128,158.3296416,20.957178841309826,set #1
1970-01-01 00:00:48.307799224,3.9417974948883057,-0.23480045795440674,1.4971760511398315,164.91875399999998,262.55814936,47.89851768,12.020595599999993,235.83407016,387.94048488,-7.751961360000001,113.30066903999999,21.007556675062972,set #1
1970-01-01 00:00:48.317249898,3.9414453506469727,-0.2383057028055191,1.4973320960998535,151.11887388,171.00990816,457.7750307,348.57646278000004,73.75773522,519.29064876,123.83955948000002,210.51328038000003,21.05793450881612,set #1
1970-01-01 00:00:48.327734117,3.941066265106201,-0.24176134169101715,1.4975638389587402,566.74569705,472.56440751,967.32704562,895.55951745,-104.59989813,643.87946649,187.36585257000002,328.60457642999995,21.10831234256927,set #1
1970-01-01 00:00:48.338137512,3.940631151199341,-0.245153546333313,1.4977070093154907,300.40800816,222.38905104,55.254157920000004,123.78577536,-253.33231248,560.41634376,-39.93390336,135.35120352,21.15869017632242,set #1
1970-01-01 00:00:48.347758417,3.940159320831299,-0.24842005968093872,1.4977384805679321,-594.6740946900001,-469.4404416,-175.14466632,-247.60726692,93.80283120000001,417.44708538,-188.59678851,5.3865161999999955,21.20906801007557,set #1
1970-01-01 00:00:48.357726936,3.9397127628326416,-0.2515273094177246,1.4977352619171143,-198.15794544,-94.5914112,-527.59854576,-177.5465016,209.18956344,412.22566632,-120.85587383999999,53.35174104000001,21.259445843828715,set #1
1970-01-01 00:00:48.367106561,3.9392447471618652,-0.25455570220947266,1.4976919889450073,-765.75735327,-583.4071101300001,-1446.6345039900002,-1052.8336786500001,214.60209303,466.88752968,-407.11818264,-42.6247146,21.309823677581864,set #1
1970-01-01 00:00:48.377301578,3.9387354850769043,-0.25750017166137695,1.4974702596664429,613.03361496,610.2354616800001,577.0416966600001,624.53177514,60.14353878,544.37469528,247.2630771,476.5676916,21.360201511335013,set #1
1970-01-01 00:00:48.387665634,3.938210964202881,-0.2602914273738861,1.4970935583114624,-110.01003546,-151.47133404,-188.80863534,-35.40944082,137.26847940000002,414.16373154,-145.9358628,202.09935095999998,21.410579345088163,set #1
1970-01-01 00:00:48.397339468,3.937713623046875,-0.2629266083240509,1.4966185092926025,-48.16463652,16.10321388,672.26693976,455.4046224,225.1735512,337.935,70.88741868,198.90235404,21.460957178841312,set #1
1970-01-01 00:00:48.407941703,3.937224864959717,-0.2654811143875122,1.4960863590240479,672.40493112,653.2810576500001,656.24078637,774.79993617,4.11075405,252.42179352,212.77981881,512.8210425,21.511335012594458,set #1
1970-01-01 00:00:48.416905765,3.93670392036438,-0.2680584490299225,1.495402455329895,575.83975995,701.15428305,1846.0061997,1717.2940999500001,575.7649579499999,76.97311635,442.17655365,385.73940015,21.561712846347607,set #1
1970-01-01 00:00:48.427561645,3.9362003803253174,-0.2704324722290039,1.4946585893630981,-379.35239355,-301.6838058,-342.63683805,-205.18838145,1417.6903123499999,-94.0409496,-463.59792765,-187.7450523,21.612090680100756,set #1
1970-01-01 00:00:48.438648824,3.9357690811157227,-0.2728615701198578,1.4938304424285889,595.96475952,553.99278792,808.85083032,872.6839929600001,-98.6274588,264.12267648,-238.55316264,-1.8027609599999987,21.662468513853906,set #1
1970-01-01 00:00:48.447249536,3.935380697250366,-0.2751913368701935,1.4930397272109985,10.789858559999999,90.91636319999999,291.50375904,394.41019488,240.59344608,247.98792096,-165.0684048,20.72750784,21.712846347607055,set #1
1970-01-01 00:00:48.457327013,3.935000419616699,-0.27768418192863464,1.492187261581421,-642.7809819600001,-503.46406812000004,-492.69945894,-235.10172348,-40.30381758000001,351.62936874,-410.044479,-228.13814634,21.7632241813602,set #1
1970-01-01 00:00:48.467500333,3.9346418380737305,-0.2801060676574707,1.4912711381912231,431.42500011000004,441.99006501,739.30168845,714.94564947,-67.48025973,284.92162335,13.4082468,56.11636368,21.81360201511335,set #1
1970-01-01 00:00:48.477219705,3.934332847595215,-0.2825901210308075,1.4903644323349,51.673759800000006,-65.67802215,283.58771415,338.67471495,-173.7567117,285.6982167,-168.84514725,-2.979873000000005,21.8639798488665,set #1
1970-01-01 00:00:48.487641220,3.9340639114379883,-0.28500843048095703,1.489530086517334,-114.4605306,-102.0699186,433.9067772,532.8953369999999,98.154927,241.3341606,267.800949,421.0395228,21.91435768261965,set #1
1970-01-01 00:00:48.497548704,3.9337382316589355,-0.28749221563339233,1.488722324371338,641.2673654399999,545.6060064,449.58806880000003,547.19144064,-246.43834176,248.45005536,398.29459488000003,323.34994848,21.964735516372798,set #1
1970-01-01 00:00:48.507260684,3.933391809463501,-0.28995853662490845,1.4879376888275146,-588.38831532,-435.65166059999996,-1230.47989584,-782.58497928,-177.90666816,110.93833296,80.74666704,115.24000644,22.015113350125947,set #1
1970-01-01 00:00:48.517362003,3.9330899715423584,-0.2923623025417328,1.4871716499328613,1232.6771102100001,867.9306636,1733.19260673,1529.06903487,42.42367623,124.44279744,811.76962503,756.78157074,22.065491183879093,set #1
1970-01-01 00:00:48.527309780,3.9327986240386963,-0.2946653664112091,1.4865199327468872,108.80571,88.4684034,269.248746,310.9807506,-106.34699400000001,22.910355,-140.1622872,-42.583811399999995,22.115869017632242,set #1
1970-01-01 00:00:48.537855272,3.9324569702148438,-0.2970695197582245,1.4858167171478271,-666.747432,-574.3843528799999,-1085.313294,-720.4639728000001,29.97918768,18.08379456,-114.85382064000001,-66.5248584,22.16624685138539,set #1
1970-01-01 00:00:48.547374372,3.932137966156006,-0.29940587282180786,1.485093355178833,193.28125908,99.5401524,124.39041732,172.30064592000002,22.9041618,34.53067488,92.19973152,280.946016,22.21662468513854,set #1
1970-01-01 00:00:48.557714347,3.9318785667419434,-0.30156126618385315,1.484455943107605,-243.8381127,-165.03197646,-545.18191299,-123.38269164000002,-46.21349421,23.31908163,-54.713579700000004,-73.14946314,22.26700251889169,set #1
1970-01-01 00:00:48.567285184,3.931666612625122,-0.3037988543510437,1.4838684797286987,114.0970272,72.25712831999999,36.09973536000001,70.33570752,28.26197088,41.57408735999999,-14.296813440000001,161.06024064000002,22.317380352644836,set #1
1970-01-01 00:00:48.577095870,3.9314589500427246,-0.30593064427375793,1.483299732208252,-45.5104143,-79.7958759,-143.8703409,-139.5170751,-51.9557103,5.0774723999999996,-320.17793340000003,-47.8446033,22.367758186397985,set #1
1970-01-01 00:00:48.587611560,3.931225299835205,-0.3080763816833496,1.4827196598052979,206.6556648,-56.64742200000002,-28.123742399999998,31.207160400000006,-163.30771080000002,126.300252,119.1864492,429.8838648,22.418136020151135,set #1
1970-01-01 00:00:48.597380762,3.9310390949249268,-0.31013935804367065,1.4821577072143555,309.04005678,232.18776828,838.75480728,789.93996042,-105.14563254,146.27504034,253.94109234,289.92501252,22.468513853904284,set #1
1970-01-01 00:00:48.607429151,3.9308576583862305,-0.31215700507164,1.4816889762878418,-808.88118636,-757.36734216,-1313.8613365800002,-863.50237272,-37.394848530000004,-25.54731543,-362.43295062000004,-229.41531951,22.518891687657433,set #1
1970-01-01 00:00:48.617287521,3.930652379989624,-0.3141510784626007,1.4812079668045044,123.83617506,-28.88038452,-1336.86599865,-849.7727979,-57.97944789,-11.755238429999999,-729.03328992,-439.69309448999996,22.56926952141058,set #1
1970-01-01 00:00:48.627669696,3.930419445037842,-0.31605303287506104,1.4807456731796265,-547.0458864,-443.32238495999997,73.44430080000001,179.52790751999999,-271.11263712,-27.434746559999997,-842.34225504,-699.60579936,22.61964735516373,set #1
1970-01-01 00:00:48.638337497,3.9302220344543457,-0.3177690804004669,1.480363368988037,311.45987301,198.78378623999998,704.10153099,927.01543233,-115.11820086,102.46278042,-173.60330559,-77.05404174,22.670025188916878,set #1
1970-01-01 00:00:48.647095804,3.930044651031494,-0.31945276260375977,1.4799890518188477,-7.095814440000001,-154.35789252,220.07512176,328.12068432,-68.08418136,74.84646936,-433.88776236,-177.36240132,22.720403022670027,set #1
1970-01-01 00:00:48.657895689,3.92984676361084,-0.3210428059101105,1.4795838594436646,575.4115266900001,404.21638725,1625.5120424400002,1364.24792127,-32.16254067,212.58227484,426.70113018,435.45226179,22.770780856423176,set #1
1970-01-01 00:00:48.667315845,3.9296371936798096,-0.32254716753959656,1.4791724681854248,412.63305525,288.1600254,-90.7192143,-0.6642265500000022,-186.46930185,82.31925195,-100.98115949999999,16.32658365,22.821158690176322,set #1
1970-01-01 00:00:48.677182559,3.929492473602295,-0.32389548420906067,1.478779673576355,-55.257910499999994,-60.74366571,-956.05777917,-440.19156324000005,25.47920895,67.46905074,78.18228755999999,110.5197015,22.87153652392947,set #1
1970-01-01 00:00:48.687871818,3.92940092086792,-0.3251297175884247,1.478452444076538,-51.01835544000001,-107.49248952,-8.716097519999991,38.28281106,71.93053218,329.3390529,-5.134843740000008,206.50714968,22.92191435768262,set #1
1970-01-01 00:00:48.697914247,3.929260015487671,-0.32638561725616455,1.4781780242919922,271.81807224000005,167.09793867000002,-268.69263602999996,-242.19105651,-19.776910530000002,76.97139957,403.2677005500001,525.29504664,22.97229219143577,set #1
1970-01-01 00:00:48.707151536,3.9291014671325684,-0.3275728225708008,1.4778883457183838,319.33221216,227.94256992,731.2406961600001,661.0594723199999,-87.51387215999999,66.09060432,299.47815456,52.45312176,23.02267002518892,set #1
1970-01-01 00:00:48.717402343,3.9289743900299072,-0.3286712169647217,1.4775885343551636,-412.16142981,-291.42291243,-377.52434421,-91.48829274,-59.61214038,-374.72596122,-32.59226334,111.52183692,23.073047858942065,set #1
1970-01-01 00:00:48.727329854,3.9288530349731445,-0.32972452044487,1.4773948192596436,370.71093540000004,103.14121584000002,-238.8439794,-38.99790024000001,-129.17224086000002,-334.53124068,-335.46550674,128.77819578,23.123425692695214,set #1
1970-01-01 00:00:48.737840538,3.9287009239196777,-0.3307303786277771,1.4771965742111206,-112.04858495999999,-200.94029592,78.93470832,22.357175099999992,-169.6078527,-228.03086514,-613.21356564,-305.60059608,23.173803526448363,set #1
1970-01-01 00:00:48.747764949,3.92853045463562,-0.331674724817276,1.47702157497406,1003.6580720400001,637.27488396,197.06173032,573.26680164,-208.24748217,-411.77933277,-132.76845581999999,206.03499033,23.224181360201513,set #1
1970-01-01 00:00:48.757836704,3.928386688232422,-0.33251193165779114,1.4768927097320557,546.4529366400001,242.48678688,578.98377888,562.7254464,-312.30878016,-624.3929328,51.272582400000005,272.98523616,23.274559193954662,set #1
1970-01-01 00:00:48.767300014,3.928229570388794,-0.3333532214164734,1.4767765998840332,453.76377149999996,297.49088616,-179.83807452000002,89.81028966000002,-1035.03349248,-1418.0769088200002,104.94453372000001,126.39589871999999,23.324937027707808,set #1
1970-01-01 00:00:48.777237062,3.928056001663208,-0.33414193987846375,1.4766169786453247,-57.73029912000001,1.2339163200000058,-376.99065378,-311.75758536,-1237.3247203199999,-2883.53994552,208.76043162000002,411.51875076,23.375314861460957,set #1
1970-01-01 00:00:48.787606601,3.927863597869873,-0.3348771929740906,1.4764899015426636,400.65030837,333.71973765,1029.74070849,1014.11216088,675.1977000600001,-5647.2706953,661.42489764,536.78958411,23.425692695214106,set #1
1970-01-01 00:00:48.797356014,3.9277162551879883,-0.3355707824230194,1.4763004779815674,92.92753158000001,-26.526494279999994,-64.68330726000002,-114.34034274000001,98.52019242,-3631.84110042,-168.88110642,18.432050520000004,23.476070528967256,set #1
1970-01-01 00:00:48.807598953,3.9276022911071777,-0.33616241812705994,1.4761031866073608,212.71402074000002,-65.07562932,-760.14914586,-491.24558847,153.49890933,-585.9604639199999,-188.3239956,-2.641520310000004,23.526448362720405,set #1
1970-01-01 00:00:48.817192916,3.9275121688842773,-0.3367030620574951,1.4758186340332031,396.833034,236.88234024,627.86394996,277.27097736,-80.7428544,2265.3430160400003,178.04482331999998,289.99654164000003,23.576826196473554,set #1
1970-01-01 00:00:48.827341203,3.9274303913116455,-0.3371454179286957,1.4754071235656738,-991.2305079299999,-962.29356327,-901.11634002,-713.23598034,-12.600577079999999,2363.1077648100004,-319.15846248,-222.62982807,23.6272040302267,set #1
1970-01-01 00:00:48.838203077,3.9273791313171387,-0.3374842405319214,1.4749845266342163,399.15959889,102.08040335999999,559.40218698,284.23558254,307.43699805000006,3398.00339931,199.08178212,238.19458689,23.67758186397985,set #1
1970-01-01 00:00:48.847315912,3.92734432220459,-0.3377489149570465,1.4746131896972656,564.3847934400001,401.25470736,1316.33407464,935.9820007200001,31.148089440000007,4441.6973796,271.69342512,187.80901464000002,23.727959697733,set #1
1970-01-01 00:00:48.857474689,3.927280902862549,-0.33799928426742554,1.474228024482727,963.3931889400001,616.3132677,2511.65219097,1759.20567381,-276.70223802000004,4441.32175344,632.64516042,421.67163675,23.778337531486148,set #1
1970-01-01 00:00:48.867254619,3.9272239208221436,-0.3382008373737335,1.473791241645813,907.10241531,714.4154046900001,1540.8182201099999,1122.9120509099998,94.82427669,4468.70128731,438.59556857999996,629.68092291,23.828715365239297,set #1
1970-01-01 00:00:48.877317790,3.9272420406341553,-0.3382636606693268,1.4733784198760986,-62.04224129999999,-153.4683618,79.5126306,-87.15949320000001,-217.7951334,3433.338714,32.445192000000006,146.0510298,23.879093198992443,set #1
1970-01-01 00:00:48.888290767,3.927299976348877,-0.3383064568042755,1.4730448722839355,-8.415321329999998,-136.58244912,-1159.32288576,-1112.5896873,-240.87247743,3303.7475008200004,-451.74455351999995,-82.85130828000001,23.929471032745592,set #1
1970-01-01 00:00:48.897397642,3.927398443222046,-0.33833956718444824,1.4726871252059937,506.30485932,237.72527766000002,141.17519910000001,130.6332846,-133.14487212,2662.6087979400004,72.37447386000001,114.9735093,23.97984886649874,set #1
1970-01-01 00:00:48.907248144,3.9274051189422607,-0.33842235803604126,1.4724761247634888,366.57590736000003,163.36498464,385.14485568000003,159.34042800000003,-96.7344768,2486.9942448,163.41775632000002,348.24069072,24.03022670025189,set #1
1970-01-01 00:00:48.917201881,3.927476167678833,-0.3384418785572052,1.4722870588302612,490.4080989600001,207.91554342,497.55759846,268.54203831,-106.69459827,2067.6710694900003,228.80690703,204.2561001,24.08060453400504,set #1
1970-01-01 00:00:48.927115087,3.9275949001312256,-0.33833783864974976,1.4721654653549194,382.35011606999996,135.83391042,128.95157184,69.25291074,-210.98208026999998,1823.09611575,55.928052179999995,254.47576673999998,24.130982367758186,set #1
1970-01-01 00:00:48.937655096,3.927698850631714,-0.3383123278617859,1.4721438884735107,-61.53589416,-155.74336128000002,220.93010784,324.98089728,7.51916568,1448.73622608,-260.10868416,-254.51244312,24.181360201511335,set #1
1970-01-01 00:00:48.948368911,3.9278006553649902,-0.3382258117198944,1.4721193313598633,146.70425406,-91.0599768,875.46530799,544.78554117,6.78113631,1563.27809976,295.39814616,302.14213223999997,24.231738035264485,set #1
1970-01-01 00:00:48.958005790,3.9279332160949707,-0.33803433179855347,1.4721217155456543,242.8790247,58.7840214,126.3396342,151.65124649999998,-172.3529028,1548.2788737,-42.6998325,0.7340346,24.282115869017634,set #1
1970-01-01 00:00:48.967265491,3.9280874729156494,-0.33777496218681335,1.472232699394226,-106.23707874,-346.47559479,-398.36639310000004,-307.6280103,127.83541914,481.64274561,-297.30565838999996,-60.0958722,24.332493702770783,set #1
1970-01-01 00:00:48.977505569,3.928257703781128,-0.3374737799167633,1.472350001335144,-5.00475183,-19.68499338,230.75789529,311.98989081,130.40816178,489.6440562,216.64565948999999,241.68148875,24.38287153652393,set #1
1970-01-01 00:00:48.987335805,3.928417205810547,-0.3371563255786896,1.472432255744934,-120.0563949,-279.95225700000003,547.3724295000001,261.957696,29.24297025,1063.6130329500002,229.19812695,296.2661442,24.43324937027708,set #1
1970-01-01 00:00:48.997480754,3.9286069869995117,-0.33684736490249634,1.4725061655044556,457.786485,258.20329002,652.15258836,687.83178126,-58.48498812,1002.0086583,267.22614048,222.53422854,24.483627204030228,set #1
1970-01-01 00:00:49.007371311,3.9288346767425537,-0.3365785479545593,1.4726200103759766,-592.0829144100001,-572.54810964,-1926.38193111,-1842.95673588,180.92547096,285.00140799,-969.98965518,-620.4824776800001,24.534005037783377,set #1
1970-01-01 00:00:49.017367725,3.929051160812378,-0.3361930847167969,1.47270929813385,-167.543103,-267.55541475,-676.7901269999999,-364.0669207499999,191.77786874999998,312.75317775,407.985474,565.464978,24.584382871536526,set #1
1970-01-01 00:00:49.027346019,3.92925763130188,-0.3358484208583832,1.4727816581726074,237.46997235,182.06692607999997,141.30617007,163.55833416,-42.95458323,530.75416251,-158.84648832000002,-19.677224579999997,24.634760705289672,set #1
1970-01-01 00:00:49.037870769,3.9294731616973877,-0.335468590259552,1.4728665351867676,-355.09201845,-530.73601035,-7.122220949999985,132.05506392,-36.612002700000005,772.22877498,421.37629794,372.22851081,24.68513853904282,set #1
1970-01-01 00:00:49.047351961,3.9296915531158447,-0.335016667842865,1.4729738235473633,752.26875282,428.34926237999997,316.84860831000003,393.02327337,-3.0469689900000003,302.26450098,153.67565031,233.56141653000003,24.73551637279597,set #1
1970-01-01 00:00:49.057172422,3.929924964904785,-0.33455535769462585,1.4731178283691406,376.83037392,309.78469236,360.71415432000003,510.44122818,-91.01103726000001,124.5774153,7.231674060000003,-205.19001360000001,24.78589420654912,set #1
1970-01-01 00:00:49.067586784,3.930128335952759,-0.3340717554092407,1.473222017288208,378.85081728,193.90354463999998,775.0513180800001,674.13787584,171.1842288,109.990296,469.45126176,402.13777344,24.83627204030227,set #1
1970-01-01 00:00:49.077217702,3.9303324222564697,-0.3335745334625244,1.4732979536056519,317.0899485,184.54772856,344.24737464000003,260.80688322000003,72.41307216,92.55585221999999,170.29664262,257.28154296,24.886649874055415,set #1
1970-01-01 00:00:49.087552433,3.9306023120880127,-0.3329247832298279,1.4733669757843018,-213.1582401,-449.37717005999997,-77.66581719,-61.88258895,-22.631620050000002,679.50629604,14.455879619999997,-32.964283949999995,24.937027707808564,set #1
1970-01-01 00:00:49.097275619,3.930872917175293,-0.3323420286178589,1.473410725593567,-39.234758549999995,-169.96602987,-520.04259294,-356.49553133999996,-130.93941587999998,432.84139158,-65.30072094,49.88017242,24.987405541561714,set #1
1970-01-01 00:00:49.107946281,3.931140661239624,-0.3317950665950775,1.4733569622039795,346.06375791,242.42206443,380.52235337999997,446.97384108,71.29909059,-296.90119836,252.55239672,151.80508278,25.037783375314863,set #1
1970-01-01 00:00:49.117128257,3.931483507156372,-0.3312516510486603,1.4731892347335815,-719.22911307,-965.5946188199999,-1134.80096886,-1011.9773519700001,94.22328045,-671.3298988500001,11.98778217,141.06683136,25.088161209068012,set #1
1970-01-01 00:00:49.127411727,3.9318337440490723,-0.3306465446949005,1.4731031656265259,-71.07777963000001,-30.460985490000002,-436.98944094,-245.96435292,-122.75047044,-239.61226458000002,-155.94620574,20.3619117,25.13853904282116,set #1
1970-01-01 00:00:49.138055925,3.9321470260620117,-0.32994306087493896,1.4729686975479126,220.44160125,-255.00659925,201.3604905,280.938879,-19.2715185,133.93281525,238.52237175000002,382.3567995,25.188916876574307,set #1
1970-01-01 00:00:49.147238378,3.9324538707733154,-0.329377144575119,1.4727877378463745,-162.59340473999998,-208.14122394,-290.7140886,-21.722276160000007,46.04487966,-268.47509832,-82.37647782,104.87757852,25.239294710327457,set #1
1970-01-01 00:00:49.157347326,3.9327707290649414,-0.32872089743614197,1.4725029468536377,-55.844571900000005,-88.4987142,272.24219958000003,314.70162828,44.3781429,-852.27211446,-17.8284288,12.397913579999997,25.289672544080606,set #1
1970-01-01 00:00:49.167731409,3.9331183433532715,-0.3280096650123596,1.4722793102264404,282.33977538,60.19489749,286.78222599000003,371.85832203,5.648703449999999,-828.7173729900001,-71.37629655,-15.33383085,25.340050377833755,set #1
1970-01-01 00:00:49.177138690,3.9335339069366455,-0.32728007435798645,1.4719767570495605,502.98799590000004,187.4099448,929.9210271000001,849.6810348,-181.0628001,-350.9826255,135.6441411,156.5291013,25.390428211586904,set #1
1970-01-01 00:00:49.187843208,3.9339287281036377,-0.32649317383766174,1.4716777801513672,-270.5830764,-296.970336,-701.2718918400001,-617.4345559200001,-65.06744400000001,233.14391568,-282.31349016,-20.569944720000002,25.44080604534005,set #1
1970-01-01 00:00:49.197264556,3.9343559741973877,-0.3256674110889435,1.4713077545166016,228.92162747999998,74.09659608,-259.75803516,-38.892996479999994,-127.40453856,362.24684652,200.90875584,130.60515624,25.4911838790932,set #1
1970-01-01 00:00:49.207188730,3.934803009033203,-0.3247995674610138,1.4709727764129639,117.40223040000001,-271.6081095,19.050060900000005,136.7857491,-106.26453629999999,-9.2787201,156.4702581,199.4588544,25.54156171284635,set #1
1970-01-01 00:00:49.217398529,3.935300588607788,-0.32386115193367004,1.4705296754837036,9.256844999999998,-103.8144705,-453.66566427000004,-226.73501253,-67.84454313,-377.85204639,21.54928112999999,82.77354423,25.591939546599498,set #1
1970-01-01 00:00:49.227295761,3.935791492462158,-0.32293084263801575,1.4700493812561035,32.76300729,-162.35345724,-221.04471012,-168.29776899,-79.81812110999999,-168.68402186999998,30.323452770000003,112.41582339000001,25.642317380352647,set #1
1970-01-01 00:00:49.237716798,3.936300039291382,-0.32184749841690063,1.469586730003357,59.389624319999996,-65.25191712,432.17201976,448.9411953,-295.16519994,41.4991707,180.01374612,183.03169248,25.692695214105793,set #1
1970-01-01 00:00:49.248086814,3.936823844909668,-0.3206700086593628,1.4692126512527466,-53.51561280000001,-142.82433438,-281.01351642,129.7221159,-270.2656905,-197.56023846,-81.77688012,40.64320026,25.743073047858942,set #1
1970-01-01 00:00:49.257233028,3.9373881816864014,-0.31942859292030334,1.4687644243240356,-30.37040447999999,-280.96967652,-120.52586052,54.585609,-167.01193236,-603.93863868,8.97388908,61.12010424,25.79345088161209,set #1
1970-01-01 00:00:49.267239456,3.937932252883911,-0.3181491196155548,1.4683759212493896,11.105165760000002,-121.21943808,-214.82957184000003,-125.78936448,-281.2510272,-648.80373792,-438.23955552,-184.78890144000002,25.84382871536524,set #1
1970-01-01 00:00:49.276940469,3.938518762588501,-0.3167777359485626,1.4679183959960938,-63.86583606000001,-217.02842499000002,133.80365817,182.90636949,-1425.37342038,293.69953587,-13.361660520000004,59.12745033,25.89420654911839,set #1
1970-01-01 00:00:49.287930374,3.939127206802368,-0.3152819871902466,1.4675097465515137,403.95853758000004,106.05978474,122.51887518,88.86569172,-652.39144074,866.81886486,88.86569172,166.94223312,25.944584382871536,set #1
1970-01-01 00:00:49.297476892,3.939739227294922,-0.31372249126434326,1.4671646356582642,232.91493264,78.31688436,253.52252016,215.74828392,-143.11197576,31.569381480000004,116.07805403999998,183.8726058,25.994962216624685,set #1
1970-01-01 00:00:49.307562236,3.9403278827667236,-0.3121073842048645,1.4668129682540894,65.9058816,52.184712839999996,-820.64615412,-521.4333477600001,-100.90055663999999,-275.09403792,-113.0186148,69.70791672000001,26.045340050377835,set #1
1970-01-01 00:00:49.317230348,3.940948963165283,-0.3103829622268677,1.4664225578308105,197.91745584,-127.89299484000001,77.61740532,-30.770180999999997,61.078091879999995,-786.07489896,35.025113759999996,80.90112888,26.095717884130984,set #1
1970-01-01 00:00:49.328498725,3.94160532951355,-0.3085407018661499,1.4661321640014648,-158.230683,-185.71623525,-1127.0197575000002,-824.61694575,187.97353575,-1041.18314625,-292.80546749999996,-164.09900325,26.146095717884133,set #1
1970-01-01 00:00:49.337535982,3.942267417907715,-0.306576669216156,1.4657325744628906,501.92970204,188.64948648,496.5468846,426.76846056,26.32207656,-1319.01245112,194.25859128,312.20640282,26.19647355163728,set #1
