,x,y,z,emg_1,emg_2,emg_3,emg_4,emg_5,emg_6,emg_7,emg_8,percentage,Source
1970-01-01 00:00:20.983608509,3.430022954940796,0.4979116916656494,1.3442362546920776,-247.8276567,178.55270628,-556.06664373,-802.90117245,-55.924355760000005,-280.18090269,-143.42669132999998,-39.661877579999995,0.0,set #1
1970-01-01 00:00:20.993314767,3.4346280097961426,0.49618634581565857,1.3443644046783447,35.61098697,240.76218465,357.83989137000003,57.054896729999996,192.62007921,-276.23314446,237.48532899000003,271.67700729,0.3184713375796178,set #1
1970-01-01 00:00:21.004295135,3.439906358718872,0.4938238561153412,1.3443278074264526,1104.9339327,977.3980124999999,2089.6590877500003,1669.70663145,-153.25250655000002,-275.8815696,489.0771054,416.76604905,0.6369426751592356,set #1
1970-01-01 00:00:21.013396287,3.4453701972961426,0.49135923385620117,1.3443948030471802,-70.5610386,27.043809779999997,230.99486670000002,-101.15355471000001,212.58745404,-326.16733227,55.48261719,32.208207720000004,0.9554140127388535,set #1
1970-01-01 00:00:21.024009967,3.4506208896636963,0.4891497790813446,1.3447394371032715,-339.45167646000004,-270.47347002,-819.1043874000001,-1047.51418161,-4.3023310200000004,-489.75319614,-209.62762626,-230.53342805999998,1.2738853503184713,set #1
1970-01-01 00:00:21.034425521,3.45652437210083,0.48629429936408997,1.3449690341949463,-141.80283702,-44.18644970999999,131.13520562999997,-186.94696878,27.9012552,-396.48436581,90.57260472000002,90.46048128,1.592356687898089,set #1
1970-01-01 00:00:21.043609167,3.462216377258301,0.4837603271007538,1.3454123735427856,-937.78481316,-562.30908786,-1360.5669168000002,-1653.84105666,178.47795849,-456.6704922,-294.40964748,-139.30632105,1.910828025477707,set #1
1970-01-01 00:00:21.053528333,3.468545436859131,0.4805963635444641,1.3457034826278687,412.88081211,106.29335808,-93.25733703,-434.60546064,55.36959324,-416.94704727,39.65069511,23.68472418,2.229299363057325,set #1
1970-01-01 00:00:21.064270759,3.4750518798828125,0.47725459933280945,1.346145510673523,212.09146880999998,378.66498501,-125.09600999999999,-331.25601249,-41.468144640000006,-329.46834414,61.035506219999995,45.962094750000006,2.5477707006369426,set #1
1970-01-01 00:00:21.073485876,3.4812989234924316,0.4742140769958496,1.3468550443649292,57.81704448000002,324.09336179999997,528.4224987599999,231.55428816,-54.4578762,-328.58380932,231.76686623999998,235.01906688,2.8662420382165603,set #1
1970-01-01 00:00:21.083889270,3.488194465637207,0.47048482298851013,1.3473186492919922,225.6178509,322.41180270000007,-86.93638200000001,-218.8672083,78.4519125,-369.8927388,-66.3516906,-98.4309573,3.184713375796178,set #1
1970-01-01 00:00:21.094082618,3.494941234588623,0.46699362993240356,1.3480907678604126,1585.26549012,1593.98023044,1562.22913002,1114.70914698,0.7984126800000002,-310.24039566,602.07004182,563.1566616,3.503184713375796,set #1
1970-01-01 00:00:21.103910470,3.502133369445801,0.4628717303276062,1.34874427318573,-129.14311410000002,-127.57336799999999,46.272552300000015,-145.0606131,88.6868346,-396.90283619999997,-76.924185,-2.489518199999992,3.821656050955414,set #1
1970-01-01 00:00:21.113415504,3.509428024291992,0.45857757329940796,1.34943687915802,-319.08437808,-625.3786032,-182.61852335999998,-438.77353728,124.366164,-446.95904448,-70.89110496,-115.62350592,4.140127388535031,set #1
1970-01-01 00:00:21.123746181,3.516791582107544,0.4541966915130615,1.3501886129379272,513.1987473600001,520.15756884,322.59575946,125.65080333,-112.54387442999999,-387.15909531,209.84474433,245.25064902,4.45859872611465,set #1
1970-01-01 00:00:21.133648897,3.5238616466522217,0.45022818446159363,1.3513319492340088,-1832.46805638,-1520.60282634,-1511.08009221,-1497.03434829,187.69396503000002,-382.13691048,-355.12007973,-332.69579772000003,4.777070063694267,set #1
1970-01-01 00:00:21.143508220,3.531158924102783,0.4459017813205719,1.352356195449829,-60.5726082,-210.8118168,-6.2109138,-232.9521402,207.08248079999998,-257.9861076,-176.04134340000002,-137.5190076,5.095541401273885,set #1
1970-01-01 00:00:21.153589035,3.5387585163116455,0.44091543555259705,1.3532414436340332,-2025.70941495,-2260.0274034,-1223.3169214499999,-1284.74739705,355.9211955,-183.08892029999998,-265.33872105,-273.09630465,5.414012738853503,set #1
1970-01-01 00:00:21.163712049,3.5463359355926514,0.43619370460510254,1.354314923286438,2328.88101381,2018.1226985399999,2683.60394055,2224.65119409,666.43805397,112.64323083,1042.88230488,1038.3901386300001,5.732484076433121,set #1
1970-01-01 00:00:21.173393512,3.553969383239746,0.4311924874782562,1.3553574085235596,-314.10127008,-253.33167912000002,-787.6509264000001,-868.73269704,581.13355248,-104.9606064,-123.58434192,-103.17782592,6.050955414012739,set #1
1970-01-01 00:00:21.184599901,3.5615830421447754,0.4257802963256836,1.356329321861267,-111.14092665,-355.41306176999996,-209.55113126999998,-380.80530501,121.21420077,-243.31968726,68.21702316,70.48334747999999,6.369426751592356,set #1
1970-01-01 00:00:21.193656469,3.569255828857422,0.4204935133457184,1.3575409650802612,-244.83064710000002,-352.2477894,-198.97332195,-306.47014671,-268.29603294000003,-181.01792202000001,22.402240770000002,-21.75264468,6.687898089171974,set #1
1970-01-01 00:00:21.204022909,3.5768585205078125,0.4150201380252838,1.358583927154541,613.1489777400001,772.67714355,556.44667026,345.49738275000004,-291.37016766000005,-184.91133023999998,491.48137622999997,352.44751464,7.006369426751592,set #1
1970-01-01 00:00:21.213511491,3.584409713745117,0.4093739986419678,1.3597456216812134,-137.83484364,-204.21091859999999,-114.19207059,-267.90584847,-982.49841573,-318.80696367,-75.7096275,-51.68210853,7.32484076433121,set #1
1970-01-01 00:00:21.223914409,3.59182071685791,0.4036145508289337,1.3609172105789185,-668.43503376,-578.73119928,-968.79506334,-989.19778503,-362.70939393,-421.4214147,-38.38475082,-225.07011189000002,7.643312101910828,set #1
1970-01-01 00:00:21.233520294,3.599071502685547,0.3977450728416443,1.3620738983154297,-1221.82614138,-958.6057455,-1494.5507031,-1527.66305718,232.38279714,-264.32870256,-113.47698804000001,27.71965326,7.961783439490445,set #1
1970-01-01 00:00:21.245976472,3.606194019317627,0.3917776644229889,1.3631469011306763,-645.33343992,-461.92290768000004,-819.94286088,-943.3503799199999,164.33201616000002,-690.06373176,-107.30256264,-181.7512008,8.280254777070063,set #1
1970-01-01 00:00:21.253785634,3.6130943298339844,0.38579314947128296,1.3642364740371704,-448.68886296,-523.42441086,-940.40161644,-1094.5262328,-806.58435624,-647.50832874,-516.6029177400001,-442.36350677999997,8.598726114649681,set #1
1970-01-01 00:00:21.264068866,3.619880199432373,0.3796892762184143,1.3652528524398804,507.84119646,302.51030082,839.1239961,714.58782876,205.72725108,-654.982887,445.83384534000004,198.39171144,8.9171974522293,set #1
1970-01-01 00:00:21.273531700,3.626540422439575,0.3734164237976074,1.3663227558135986,-689.9865570000001,-921.61173,-92.415531,-297.154845,120.049254,-639.365103,36.194067000000004,11.666226,9.235668789808917,set #1
1970-01-01 00:00:21.283542419,3.6330559253692627,0.36710911989212036,1.3673299551010132,-426.58123950000004,-386.1198744,-243.12250989,-372.00482475,407.26876203,-599.35678452,-129.19104549,-231.60159203999999,9.554140127388534,set #1
1970-01-01 00:00:21.294270540,3.639385938644409,0.3607802391052246,1.3684356212615967,-267.72353400000003,314.241369,44.750433,-60.57886379999999,534.4114542,-588.91053,-22.680886799999996,-9.280588199999999,9.872611464968152,set #1
1970-01-01 00:00:21.304125095,3.6455767154693604,0.3543395400047302,1.3695670366287231,-960.20077725,-557.3936433,-584.13416295,-693.0501844500001,-74.881482,-610.59452805,-116.66308485,-170.58540134999998,10.19108280254777,set #1
1970-01-01 00:00:21.313554788,3.651597738265991,0.3478862941265106,1.3707648515701294,-81.48900396,-322.87029684,15.870621000000002,-129.150294,62.42889276,-589.5333085200001,-51.68057388,-179.81963532,10.509554140127388,set #1
1970-01-01 00:00:21.323942924,3.6574580669403076,0.34140756726264954,1.3719087839126587,260.72420556,344.32597680000003,-696.76392552,-799.5821542799999,-79.96418508000001,-494.59120308,138.54437532,163.92562212,10.828025477707007,set #1
1970-01-01 00:00:21.333614850,3.6632821559906006,0.33486711978912354,1.3730323314666748,-220.1115345,-426.81438149999997,678.428517,430.3387335,-200.5718325,-488.565012,244.353681,49.7889015,11.146496815286623,set #1
1970-01-01 00:00:21.344281698,3.6689088344573975,0.32825830578804016,1.3742185831069946,-220.81308522,-481.98452484,-628.65549318,-872.6606889,-90.2989776,-558.0433466400001,-265.78434714,-327.40155162,11.464968152866241,set #1
1970-01-01 00:00:21.353664899,3.67431902885437,0.32169482111930847,1.3753398656845093,797.60377242,408.53721168,1079.0203869900001,898.7096976,91.81003845000001,-432.92294721,399.48615837,143.07130188,11.78343949044586,set #1
1970-01-01 00:00:21.363491083,3.679579019546509,0.31513985991477966,1.3764216899871826,837.7791801600001,519.50661789,614.18101329,430.86337242,-166.1884341,-529.1947182600001,239.31918621,105.94241112,12.101910828025478,set #1
1970-01-01 00:00:21.373580003,3.684643268585205,0.3086080849170685,1.3774698972702026,-148.23237117,-434.48440269,262.91355636000003,204.03937632,82.37592753000001,-247.99356387,7.66696359,-244.94393469,12.420382165605094,set #1
1970-01-01 00:00:21.384039188,3.6896235942840576,0.30202826857566833,1.3784434795379639,322.90378692,-31.09890264,1.6566560399999988,-209.97211091999998,-225.87553872,-441.01358339999996,118.31601756,0.15338388000000003,12.738853503184712,set #1
1970-01-01 00:00:21.393321538,3.6944503784179688,0.2953834533691406,1.3794461488723755,-221.85778524,-35.22659478,-659.4718416000001,-794.20662594,-36.25076364,-539.61177894,-264.35332872000004,-332.06934852,13.05732484076433,set #1
1970-01-01 00:00:21.403555894,3.6991822719573975,0.2886860966682434,1.3804651498794556,213.04869612,-160.38533238,99.60989610000001,9.339151379999997,-67.12478526000001,-479.45029548,63.75395208,-65.25639666000001,13.375796178343949,set #1
1970-01-01 00:00:21.413584495,3.7037758827209473,0.2820631265640259,1.3814283609390259,-228.19454385,73.63083585000001,-102.94817715,-260.14330875,-76.1757087,-460.1395305,8.0473146,-76.34385915,13.694267515923567,set #1
1970-01-01 00:00:21.423555875,3.708282470703125,0.27534666657447815,1.3824251890182495,-693.6279675000001,-323.29893375,-778.4161125,-798.8911125000001,-112.32,-516.59521875,-401.80559250000005,-352.00400625,14.012738853503183,set #1
1970-01-01 00:00:21.433454299,3.7125771045684814,0.26866090297698975,1.3834196329116821,595.15781988,428.68642596,743.4419514600002,696.1291517699999,84.01675425,-350.40654168000003,391.10353776,276.36907233,14.331210191082802,set #1
1970-01-01 00:00:21.443544889,3.7167129516601562,0.2620442509651184,1.3843812942504883,-248.74906836000002,-232.03453806,-348.21343479,-491.46978738,168.86219805000002,-360.07936926,90.08586171,150.12783162,14.64968152866242,set #1
1970-01-01 00:00:21.453931833,3.7207467555999756,0.25548410415649414,1.3853551149368286,-13.989118260000005,27.94631151,144.03796289999997,-103.40062746000001,300.62894277,-339.20243643000003,7.71108624,-34.90677996000001,14.968152866242038,set #1
1970-01-01 00:00:21.463790441,3.7246241569519043,0.24901652336120605,1.3863016366958618,-437.57130689999997,-561.9211010399999,-265.00780722,-418.01971926,-120.32933562000001,-411.22488771,-165.64242668999998,-252.25110729,15.286624203821656,set #1
1970-01-01 00:00:21.473513628,3.7283852100372314,0.24243667721748352,1.3872880935668945,-546.5063526,-415.13646875999996,-699.7895689200001,-664.53838152,108.43522716,-459.08681208,-342.08221476000006,-525.1005240000001,15.605095541401273,set #1
1970-01-01 00:00:21.483736301,3.7320148944854736,0.23592720925807953,1.3882105350494385,302.02972527,-43.18447029,28.32712467,2.2732647599999964,41.79280989000001,-524.85050865,-40.71358161,-229.44551447999999,15.92356687898089,set #1
1970-01-01 00:00:21.493779684,3.7355408668518066,0.22944732010364532,1.3892204761505127,-43.24829184000001,12.502785360000018,-642.1878372,-689.6808562800001,-53.25815352,-625.96443936,-567.90700044,-743.45894064,16.24203821656051,set #1
1970-01-01 00:00:21.504057432,3.7389955520629883,0.22298750281333923,1.3901671171188354,50.2297068,21.81626928,-338.03635944,-417.64907496,160.6167264,-624.64955592,-72.19213248,-200.87237352,16.560509554140125,set #1
1970-01-01 00:00:21.513480926,3.742398500442505,0.2163798213005066,1.39119291305542,607.8249855600001,330.17423166000003,240.52369536,167.47467360000002,-441.37159638,-692.2749865200001,45.41211246,-70.29619584000001,16.878980891719745,set #1
1970-01-01 00:00:21.523750091,3.7456908226013184,0.2096468061208725,1.3920576572418213,148.19261808000002,97.8729648,199.95329991,166.70093778,-39.683813130000004,-558.87127764,29.532740249999996,-158.15891208,17.197452229299362,set #1
1970-01-01 00:00:21.534712100,3.748915672302246,0.2029971480369568,1.3929486274719238,451.92716400000006,517.422516,736.795605,616.293483,-169.36143900000002,-429.18985200000003,597.285507,293.517276,17.51592356687898,set #1
1970-01-01 00:00:21.543816829,3.7520859241485596,0.1962699294090271,1.3938634395599365,551.91911463,489.76814055000006,944.83419537,959.89340772,-8.12426121,-305.19631506,574.06037286,435.95605481999996,17.8343949044586,set #1
1970-01-01 00:00:21.554230237,3.7551028728485107,0.18961726129055023,1.394832730293274,-225.3468009,-313.3550121,25.636654679999992,-0.09717317999999864,42.497283270000004,-295.16526858000003,-44.666599379999994,-375.04129416,18.152866242038215,set #1
1970-01-01 00:00:21.563449884,3.758014678955078,0.18301768600940704,1.3958207368850708,-407.77639968,-751.17366168,-175.68513924,-164.27741304,182.03462783999998,-200.22455232,30.120756119999996,-46.106055839999996,18.471337579617835,set #1
1970-01-01 00:00:21.573502565,3.7608935832977295,0.17681002616882324,1.3970818519592285,197.6619762,-388.5669762,332.93295555,264.04600560000006,294.56504025,-137.94696045,266.09804130000003,169.2820077,18.78980891719745,set #1
1970-01-01 00:00:21.583795572,3.7636919021606445,0.17019300162792206,1.3979424238204956,-556.9811754,4.862769599999998,-519.74897832,-578.91269748,-16.16326452,-190.6186152,-75.1735764,-188.36899224,19.108280254777068,set #1
1970-01-01 00:00:21.593512321,3.7663092613220215,0.16372860968112946,1.3988507986068726,-1511.30156736,-1080.8409171300002,-1617.95708451,-1460.81714883,318.05740278,-228.27090936,-447.22604355,-431.29169304,19.426751592356688,set #1
1970-01-01 00:00:21.604154850,3.768956422805786,0.157056987285614,1.3998500108718872,143.6677515,24.088389,-293.5017345,-314.734173,395.954754,-192.533367,-84.33009,-225.45190200000002,19.745222929936304,set #1
1970-01-01 00:00:21.613763118,3.771496057510376,0.15048032999038696,1.4008983373641968,-7.474233779999992,34.732352460000016,412.0304994,447.1416183,250.83955494,-108.98305782,34.10287686,-42.13277796,20.063694267515924,set #1
1970-01-01 00:00:21.623321557,3.773899555206299,0.14455363154411316,1.402151346206665,429.54955797,338.48361066,1375.96768296,1255.33858671,3.00766986,32.17710366,726.32760018,451.035,20.38216560509554,set #1
1970-01-01 00:00:21.633683229,3.77624773979187,0.1380501240491867,1.4031009674072266,479.71561365,-318.2002278,159.98208798000002,35.35648934999999,308.54447169,35.10722202,35.97200685,12.20016408,20.700636942675157,set #1
1970-01-01 00:00:21.643437171,3.7784481048583984,0.1317707747220993,1.4040522575378418,14.11350993,-39.754073580000004,208.36225137000002,102.17294684999999,74.36145678,59.35453641,120.61417212,29.768675430000002,21.019108280254777,set #1
1970-01-01 00:00:21.653789545,3.7807090282440186,0.12529174983501434,1.4050109386444092,-108.91805535,-26.9909094,554.59596465,480.12793725000006,-8.164439400000001,104.30514120000001,326.6915574,112.59190410000001,21.337579617834393,set #1
1970-01-01 00:00:21.663582349,3.7828586101531982,0.11892227828502655,1.4059979915618896,-268.94632947,-684.85651533,-659.42655168,-714.64136445,-206.76653556000002,-8.24054283,-415.69636719,-419.77294047,21.656050955414013,set #1
1970-01-01 00:00:21.673558736,3.7849278450012207,0.1125943660736084,1.4070079326629639,16.97602608,192.47530848,-500.01561168,-436.18871712,-287.198028,56.01487632,-207.54725471999998,-252.88294512,21.97452229299363,set #1
1970-01-01 00:00:21.684156442,3.7868492603302,0.1063762977719307,1.4079813957214355,583.9510060800001,17.601517440000002,356.16693684,412.82817888,-233.78348838000002,139.77312102000002,358.43993406,169.45024356,22.292993630573246,set #1
1970-01-01 00:00:21.694025541,3.7887325286865234,0.10030532628297806,1.4089536666870117,28.34610441,-5.59572234,57.64811949,211.71077889,-281.51920095,82.09230159,184.51391985,26.796065400000003,22.611464968152866,set #1
1970-01-01 00:00:21.704037691,3.790562391281128,0.09421033412218094,1.4098812341690063,-320.75341428,-266.44237190999996,-782.73668772,-932.5731647700001,-152.33836995000001,48.255051,-317.60050569,-286.25741742,22.929936305732483,set #1
1970-01-01 00:00:21.713459754,3.7922868728637695,0.08822435140609741,1.4109145402908325,-1047.1016946,-1005.19217916,-152.59495056,-185.39703,-172.53826434,54.93626346,-315.95874491999996,-443.81835966,23.248407643312103,set #1
1970-01-01 00:00:21.723627592,3.7939298152923584,0.08229619264602661,1.411897897720337,-1035.2136537600002,-1369.67661168,-385.62104256,-347.07417264000003,-202.47717360000001,31.42049976,-124.3897824,-255.15795552,23.56687898089172,set #1
1970-01-01 00:00:21.733919883,3.7955403327941895,0.07639774680137634,1.412921667098999,9.454432260000004,385.03149945,-139.7807775,-184.69555026,-495.68475528,-10.67231646,-40.52555481,-3.388662420000003,23.885350318471335,set #1
1970-01-01 00:00:21.743920589,3.797084331512451,0.07054540514945984,1.4139063358306885,404.85285906,32.02649969999999,1018.10253012,882.8641606200001,-64.46013912,29.055,372.86768688,191.58993399000002,24.203821656050955,set #1
1970-01-01 00:00:21.753892684,3.7985942363739014,0.06494063138961792,1.41517972946167,-136.79357484000002,-19.968808080000002,-316.56793272000004,-507.82004831999996,35.347338,-4.0674129599999995,1.8186823200000006,22.333644839999998,24.522292993630572,set #1
1970-01-01 00:00:21.764015222,3.7999703884124756,0.05913819745182991,1.4160584211349487,-392.11886532,-355.1807532,-426.6315573,-401.22037722000005,197.44413702,-75.34033182,-182.96977919999998,-165.37459458,24.84076433121019,set #1
1970-01-01 00:00:21.773666168,3.80133056640625,0.0535917654633522,1.417169213294983,136.94843136,-312.64688832,1030.29289272,926.63466168,-6.19507512,-72.43377024,313.66497552,63.68547744,25.159235668789808,set #1
1970-01-01 00:00:21.783647562,3.8026039600372314,0.04791605845093727,1.4179502725601196,-133.17650892,-125.64640217999998,909.5880729,642.2502450000001,184.87751646,-16.5606558,328.20967998000003,244.61072922,25.477707006369425,set #1
1970-01-01 00:00:21.793383384,3.8037915229797363,0.04230909049510956,1.4187430143356323,-736.3512156,-619.9528888799999,-960.52305648,-861.894072,-150.85093296000002,-169.69935216000002,-361.05054024,-252.18257376,25.796178343949045,set #1
1970-01-01 00:00:21.803739095,3.8049044609069824,0.036732614040374756,1.4194989204406738,162.83096310000002,50.60230305,372.44515620000004,345.75567390000003,108.59576325,-54.745236,169.7280663,173.6482566,26.11464968152866,set #1
1970-01-01 00:00:21.813727165,3.805966854095459,0.03131702542304993,1.4201830625534058,-79.34260425000001,-914.12971065,-563.3880993,-507.47791965,-101.93942265,-119.0193966,-191.44072545,-194.09809380000002,26.433121019108277,set #1
1970-01-01 00:00:21.823853279,3.806976318359375,0.02593018114566803,1.4208868741989136,178.47969321,293.79629175,126.03105021,8.347574430000005,-208.45593873,-92.27495355,154.99429374,98.91391263,26.751592356687897,set #1
1970-01-01 00:00:21.834517742,3.807910680770874,0.020547229796648026,1.421524167060852,-766.78217226,-967.02892104,-780.11135046,-689.82886518,-204.65690856,-149.89838759999998,-190.33320618,-249.03512556,27.070063694267514,set #1
1970-01-01 00:00:21.844351078,3.808788776397705,0.015271163545548916,1.4221545457839966,551.8084774800001,463.97937690000003,627.19229898,503.21460072,-332.35069218,-81.47242194,149.31192042,35.291575019999996,27.388535031847134,set #1
1970-01-01 00:00:21.853632236,3.8096330165863037,0.010217142291367054,1.4230862855911255,-302.35447788,-195.4606134,-115.9217046,-282.70866467999997,-202.70991156,-137.21869044000002,-107.73297287999999,-137.91945648,27.70700636942675,set #1
1970-01-01 00:00:21.863858486,3.8104796409606934,0.0051460713148117065,1.423784852027893,93.04911953999999,-246.56378370000002,439.67967732,464.83843848000004,-155.6354787,-67.70204532,202.00420032,90.70658532,28.025477707006367,set #1
1970-01-01 00:00:21.873723531,3.8112361431121826,-4.1505321860313416e-05,1.4242422580718994,-698.83649043,-521.5448979,-709.2840124500001,-691.15138833,-268.00809477,-161.72844831,-168.87253383,-228.25343970000003,28.343949044585987,set #1
1970-01-01 00:00:21.884773040,3.811915159225464,-0.005242634564638138,1.4247061014175415,-139.1420472,-438.83130719999997,261.38467679999997,157.83243840000003,-180.1030296,-178.83378240000002,-87.471072,-365.5483104,28.662420382165603,set #1
1970-01-01 00:00:21.894027496,3.812541961669922,-0.010309473611414433,1.4251424074172974,865.12775544,472.99087679999997,991.1674063199999,734.55979584,-85.90921248000001,-45.18357168,636.17068632,435.90089712,28.980891719745223,set #1
1970-01-01 00:00:21.904328371,3.8131721019744873,-0.015221855603158474,1.4258525371551514,-23.78799462,-64.89369003,-256.94947707,-241.79279514,-137.5856469,-95.43354717,148.37724798,-141.311469,29.29936305732484,set #1
1970-01-01 00:00:21.913718725,3.81374454498291,-0.020312922075390816,1.4262442588806152,235.64467875,97.452147,744.64268775,705.32321925,-471.1426785,-81.13258725000001,499.94177025000005,123.26252250000002,29.617834394904456,set #1
1970-01-01 00:00:21.923945928,3.8142614364624023,-0.02530883625149727,1.4266440868377686,-950.0191428,-1035.88318392,-713.8517599200001,-698.48346984,-60.97018200000001,-97.96940400000001,-192.30955848000002,-282.11005056,29.936305732484076,set #1
1970-01-01 00:00:21.933717990,3.8147494792938232,-0.030267557129263878,1.4270185232162476,-1009.7196837,-930.5903490000001,-538.6567407,-619.7179482,60.5489625,-103.7144043,-362.6582934,-406.9356369,30.254777070063692,set #1
1970-01-01 00:00:21.943648363,3.8151907920837402,-0.035086266696453094,1.4274704456329346,882.05748969,554.6578202100001,1420.67036163,1150.53272724,-272.81243808,76.65746906999999,257.61334716,197.83028928,30.573248407643312,set #1
1970-01-01 00:00:21.953884387,3.8155786991119385,-0.039812542498111725,1.4281444549560547,-303.2836443,-283.58135715000003,598.2067361400001,381.95364285,-84.59029137,1.9322916600000006,-82.80641304,-181.99241697000002,30.89171974522293,set #1
1970-01-01 00:00:21.963726306,3.8158884048461914,-0.044491998851299286,1.428680181503296,96.26328114,-57.47893866,96.36921762,36.95155386,-136.68823506,-129.97935834,-397.13729016,-580.71567684,31.210191082802545,set #1
1970-01-01 00:00:21.973768735,3.816152811050415,-0.04908343032002449,1.4291340112686157,-458.00443455000004,-405.6400959,-631.2685996499999,-574.9640442,-182.5396404,-204.9596133,-168.79254795,-338.82044820000004,31.528662420382165,set #1
1970-01-01 00:00:21.984081531,3.8164103031158447,-0.05352415144443512,1.429607629776001,-72.41186589,-270.46860399,200.56443966,138.74749707,-458.75453598,-219.30979551,265.26520449000003,86.87039127,31.84713375796178,set #1
1970-01-01 00:00:21.993479753,3.8165972232818604,-0.058016516268253326,1.4300717115402222,-436.06406727,-417.56314977,-482.70076803,-531.91491483,-334.16963112,-197.99847522,-141.64201662,-199.54671204000002,32.1656050955414,set #1
1970-01-01 00:00:22.004279638,3.8167359828948975,-0.062391869723796844,1.4304825067520142,-80.72241138000001,-246.44082372000003,-283.55982096,-335.36364576,-356.2191165,-228.62594118,-138.5400003,-153.96864756,32.48407643312102,set #1
1970-01-01 00:00:22.013622070,3.8168373107910156,-0.06670581549406052,1.4308794736862183,-168.9780924,-318.0251724,-20.11918740000001,74.5015206,-565.6759446000001,-313.9846671,40.6205475,52.4225871,32.802547770700635,set #1
1970-01-01 00:00:22.024109388,3.816904306411743,-0.07101132720708847,1.4312238693237305,-347.832264,-665.86646568,-258.6448488,-232.67307336,-401.87669339999997,-239.80210176,-196.16622324000002,-143.93646384,33.12101910828025,set #1
1970-01-01 00:00:22.033749366,3.8169105052948,-0.07516591250896454,1.431601643562317,-406.99713522,-298.18664928,-427.47098705999997,-351.05274594,-299.48340552,-1.9353320999999966,-135.15329724,-130.99516638,33.439490445859875,set #1
1970-01-01 00:00:22.043744588,3.8168530464172363,-0.07908637076616287,1.4319130182266235,209.33386032,264.98818164,299.87282519999997,314.84901552,-9.806579639999999,104.83830396,185.31420492,182.34535644000002,33.75796178343949,set #1
1970-01-01 00:00:22.054324174,3.816781759262085,-0.08318766206502914,1.4323056936264038,-1587.0789051000002,-1432.58762166,-2334.33467202,-2053.81941804,384.53342772,-292.27291548,-551.0723634000001,-498.6109206,34.07643312101911,set #1
1970-01-01 00:00:22.063766504,3.8166842460632324,-0.08713959157466888,1.4327176809310913,181.27175664,53.88811896000001,103.89453048000001,57.64281432,-193.29268608,-334.40115696,-171.04309872,-253.7879136,34.394904458598724,set #1
1970-01-01 00:00:22.074015642,3.816542625427246,-0.09079454094171524,1.433032512664795,-298.93839456,-482.68202502,-571.16979894,-487.43252376000004,37.37708676,-221.94787524,-225.21470868,-201.69227676,34.71337579617834,set #1
1970-01-01 00:00:22.084068323,3.8163387775421143,-0.09445858001708984,1.4334075450897217,478.27323336,-62.18925375,497.10345008999997,451.64664831,475.30220361,-248.15506326,-296.11173735,-83.26499883000001,35.03184713375796,set #1
1970-01-01 00:00:22.093801761,3.8161139488220215,-0.09823276102542877,1.4337564706802368,-1130.9806248,-869.2055112,-682.19687991,-586.8591483299999,478.66299156,-527.32724148,-330.32916618,-353.65185297,35.35031847133758,set #1
1970-01-01 00:00:22.103781963,3.815916061401367,-0.10184440016746521,1.4341813325881958,425.36668707,173.35407804,38.66212701,5.51741775,128.92664499,-748.22297628,-228.38864958,-34.4286228,35.6687898089172,set #1
1970-01-01 00:00:22.113723064,3.815704345703125,-0.10548258572816849,1.4345399141311646,-634.56907176,-825.87982776,-1541.20516368,-1348.0822867200002,-194.40318144,-693.2607832799999,-453.92094072000003,-434.50235399999997,35.98726114649681,set #1
1970-01-01 00:00:22.123792196,3.815492868423462,-0.1089119091629982,1.434830904006958,490.28520840000004,299.28571608,760.204848,825.19293324,-150.50496396,-298.02865716,206.77219680000002,130.00519116,36.30573248407643,set #1
1970-01-01 00:00:22.133784795,3.8152992725372314,-0.11221906542778015,1.435149908065796,582.4558935,235.1467677,893.17539675,823.1482759500001,-165.06898785,-421.6965168,457.39341959999996,264.723381,36.624203821656046,set #1
1970-01-01 00:00:22.144247079,3.815117359161377,-0.11564479023218155,1.4355435371398926,35.85828207,-286.99081632,-580.28248005,-540.46347576,254.30639988000001,-434.16636081,-288.18949458000003,-219.05951769,36.94267515923567,set #1
1970-01-01 00:00:22.153613353,3.814940929412842,-0.119013212621212,1.4359097480773926,76.54428365999999,-222.55852749,-94.00605278999998,-4.5991931699999995,118.02048843,-45.15171492,-2.7749131800000004,24.91079955,37.261146496815286,set #1
1970-01-01 00:00:22.163689161,3.814765453338623,-0.12201717495918274,1.436274766921997,-333.22380039,-300.6136809,-790.9207975500001,-746.81015253,776.82777003,560.62103799,-265.17875826,-147.07460703,37.5796178343949,set #1
1970-01-01 00:00:22.173873687,3.814655303955078,-0.12474781274795532,1.4366792440414429,34.97443482,-340.60795821,-21.17726871,-20.4342411,697.98908283,665.4180413400001,11.603524140000001,59.60445504,37.89808917197452,set #1
1970-01-01 00:00:22.184687639,3.814485788345337,-0.12800772488117218,1.4372844696044922,223.20627030000003,-260.50340745,-275.5690353,-235.53950433,640.56719376,1318.13939751,-162.23219376,-153.50540166000002,38.216560509554135,set #1
1970-01-01 00:00:22.193817401,3.814317226409912,-0.13113605976104736,1.437883734703064,-197.75388282,-43.690049130000006,-1282.5342523499999,-1160.3666759100001,847.19184498,951.85675221,-175.82709612,-47.91029295,38.53503184713376,set #1
1970-01-01 00:00:22.204450870,3.814121723175049,-0.13395719230175018,1.438459038734436,133.35026639999998,-38.80539390000001,-692.675919,-613.8530073,697.011432,1210.6673787000002,-336.7298688,-183.2748489,38.853503184713375,set #1
1970-01-01 00:00:22.213407302,3.813915729522705,-0.1368502378463745,1.4390697479248047,-295.66531722,-410.04821364,-16.83187116000002,-31.794165000000007,610.82219874,1067.92319244,195.02023241999999,267.19639518,39.17197452229299,set #1
1970-01-01 00:00:22.223747993,3.813697576522827,-0.13958312571048737,1.439800500869751,-370.25516540999996,-395.76205266,-786.665724,-766.2917964,595.4846016600001,477.94847217,-355.02686193,-208.12836057,39.49044585987261,set #1
1970-01-01 00:00:22.233905340,3.813462257385254,-0.1424357295036316,1.4404053688049316,-84.4956372,-341.44408740000006,-457.31861760000004,-381.8810658,482.6997786,248.9903832,-189.01371840000002,-148.0646622,39.808917197452224,set #1
1970-01-01 00:00:22.244037414,3.8132193088531494,-0.1449325680732727,1.4410706758499146,849.38199216,754.37467014,824.19244284,608.51461476,220.86601212,-47.875854000000004,188.27149692,303.90789390000003,40.12738853503185,set #1
1970-01-01 00:00:22.253698850,3.812985897064209,-0.1474965363740921,1.4416403770446777,-150.0717075,-304.4005185,455.78011050000003,361.2015615,415.1128605,-266.9976075,97.151106,62.899785,40.445859872611464,set #1
1970-01-01 00:00:22.263658071,3.812786817550659,-0.14987187087535858,1.4423803091049194,-449.84031651000004,-279.58154484,-406.42257942,-269.56888881,545.14790343,-401.6309076,-414.88215678,-277.14397854000003,40.76433121019108,set #1
1970-01-01 00:00:22.273974205,3.812565326690674,-0.15220654010772705,1.442881464958191,693.48230445,339.70144455,1008.1726239,794.9356389000001,-442.62753795000003,-630.3142794,263.17021185,194.51932695000002,41.0828025477707,set #1
1970-01-01 00:00:22.284671092,3.8123421669006348,-0.15448284149169922,1.4433410167694092,-240.83761572,-362.57398632,64.51940507999998,-93.13269888,-101.81129399999999,-721.6858116,-128.4716004,8.498834760000001,41.401273885350314,set #1
1970-01-01 00:00:22.293649221,3.812189817428589,-0.15635184943675995,1.4437590837478638,-196.37145918000002,-249.77364398999998,-1390.9811331,-1121.3074302300001,-364.40164176,-857.02414473,-535.0274970300001,-452.2475334,41.71974522292994,set #1
1970-01-01 00:00:22.303679491,3.812049627304077,-0.15817402303218842,1.4441335201263428,42.244277789999984,-100.29674732999999,830.37666582,749.2070964300001,-634.51575096,-898.32494934,16.350572160000006,-6.25015794,42.038216560509554,set #1
1970-01-01 00:00:22.313515211,3.8119328022003174,-0.15986354649066925,1.4444127082824707,58.847327369999995,-67.4788023,555.38124018,333.43890099,-312.12936378000006,-880.2464580000001,72.25314564,-125.77633886999999,42.35668789808917,set #1
1970-01-01 00:00:22.323418403,3.811802864074707,-0.16137827932834625,1.4446418285369873,64.30931987999999,85.38216530999998,133.40349711,103.08373490999998,-674.8719595800001,-897.1381177200001,-125.92131863999998,48.42155174999999,42.67515923566879,set #1
1970-01-01 00:00:22.333478237,3.8116533756256104,-0.1628117561340332,1.44486403465271,640.1549037000001,483.13832229,866.9102356200001,867.7131290100001,-66.73393662000001,-594.35151243,389.87611221,208.67717559,42.9936305732484,set #1
1970-01-01 00:00:22.343657279,3.8115525245666504,-0.1640128642320633,1.445017695426941,-1096.7906816099999,-1072.9494804600001,-1386.63488886,-1392.72060603,80.81617674,-797.5893716700001,-734.9847468600001,-457.22633658,43.31210191082803,set #1
1970-01-01 00:00:22.353582168,3.811469554901123,-0.16495056450366974,1.444975733757019,294.50724576000005,-88.435932,868.86542496,834.71930568,302.20977384,-731.4177312,384.43363296,203.92432008,43.63057324840764,set #1
1970-01-01 00:00:22.363573099,3.811410903930664,-0.16565373539924622,1.444839358329773,239.92318584000003,14.76202962,575.4796035300001,602.35880094,36.35555352,-865.5012054,558.0035487,393.74170368,43.94904458598726,set #1
1970-01-01 00:00:22.373659397,3.8114094734191895,-0.16615015268325806,1.4446847438812256,-6.528679949999997,-638.9166942600001,-292.70851935,-180.50959602,-91.58646237,-900.79393482,131.32617303,-16.179508799999994,44.267515923566876,set #1
1970-01-01 00:00:22.384059930,3.8114326000213623,-0.1664799600839615,1.4445196390151978,678.1833864,778.4353941,1178.1185169,1082.164356,-384.9434784,-741.0953667,474.277362,485.4706701,44.58598726114649,set #1
1970-01-01 00:00:22.393496299,3.811415433883667,-0.16676926612854004,1.4443998336791992,-436.66417899000004,-360.48585963,-472.13179649999995,-265.1501931,151.74998786999998,-642.84124476,-33.12993489,-145.19994372,44.904458598726116,set #1
1970-01-01 00:00:22.403940225,3.8113718032836914,-0.16694824397563934,1.4440721273422241,-762.78981675,-618.9574365,-1358.4690405,-1274.209014,285.1111185,-586.126944,-353.40200025,-93.20672399999998,45.22292993630573,set #1
1970-01-01 00:00:22.413642431,3.8113510608673096,-0.16698503494262695,1.4437528848648071,140.57405934000002,116.25766269,1083.81508833,925.65074589,407.08191303,-328.90479843,298.22204061,212.96472444,45.54140127388535,set #1
1970-01-01 00:00:22.423984313,3.8113491535186768,-0.16686314344406128,1.4434535503387451,-219.46831647000002,-245.11949826,681.9640877400001,740.4411635399999,308.39211312000003,-383.87926356,252.25905042,60.96939459000001,45.859872611464965,set #1
1970-01-01 00:00:22.434210086,3.811354875564575,-0.1665591597557068,1.4431897401809692,232.56901512000002,163.68181127999998,-92.20005678000001,88.04193528,-160.36726758,-563.4731887199999,-10.88719008,54.42960744,46.17834394904458,set #1
1970-01-01 00:00:22.443513179,3.8113746643066406,-0.16612128913402557,1.442814826965332,-205.99352124,-347.7061848,-399.05522943,-221.39074386,-428.98006632,-659.03443359,-182.55566589,-122.81853557999999,46.496815286624205,set #1
1970-01-01 00:00:22.453869129,3.811434507369995,-0.16546863317489624,1.4423805475234985,-182.41942602,-186.37695843,92.95978887000001,46.80257985,-609.58573767,-712.75763598,-277.1614326,-109.75451292,46.81528662420382,set #1
1970-01-01 00:00:22.463525081,3.8115248680114746,-0.1646982580423355,1.4419735670089722,526.08631881,405.18442340999997,2207.66305344,1990.93666434,-1080.05609205,-686.97395481,426.39779247,241.67157573,47.13375796178344,set #1
1970-01-01 00:00:22.473480487,3.8116416931152344,-0.1637793928384781,1.4415935277938843,-326.46122262000006,-380.6921664,758.59110522,660.85519305,-887.74654098,-565.4163535800001,-89.07480582000002,-57.504774209999994,47.452229299363054,set #1
1970-01-01 00:00:22.484122301,3.8117616176605225,-0.16269245743751526,1.4410492181777954,288.54765147,222.6164109,354.50993603999996,142.41133335,-228.73091514,-184.12197882,-109.07594958000001,16.473132000000007,47.77070063694267,set #1
1970-01-01 00:00:22.493433023,3.8119354248046875,-0.1613527536392212,1.440584659576416,1179.6429535799998,970.8788368500001,1067.55475281,1111.40151759,258.12594249,35.41708326,378.16294503,334.28738967000004,48.08917197452229,set #1
1970-01-01 00:00:22.504111553,3.8121325969696045,-0.1599646359682083,1.440163493156433,268.14648393,219.50218446000002,1745.8224381,1202.41940247,112.49099745,-141.63448298999998,451.28362577999997,523.7375052,48.40764331210191,set #1
1970-01-01 00:00:22.513731981,3.812323808670044,-0.1586221605539322,1.4397485256195068,-45.382230660000005,28.40595459,-190.49042531999999,-359.01864843,282.27836481,-34.47098304,-197.15795853,-9.582854579999996,48.72611464968153,set #1
1970-01-01 00:00:22.523576761,3.81252384185791,-0.15702973306179047,1.4392483234405518,276.53288754,281.52575763,-101.73024731999999,-42.80232684,-394.80444393,-404.98999359000004,-207.67582173,-25.37113137,49.044585987261144,set #1
1970-01-01 00:00:22.534283185,3.812761068344116,-0.1549341231584549,1.4386165142059326,1669.8638697000001,1226.0852994000002,1798.287894,1680.9858116999999,121.75399665,140.0755044,772.8936696000001,707.194215,49.36305732484076,set #1
1970-01-01 00:00:22.543801570,3.8130242824554443,-0.15285637974739075,1.4378023147583008,-332.8081887,-217.457994,-628.8789078,-521.1038625,98.60434740000001,1.6137459000000014,-290.84152109999997,-124.8025506,49.68152866242038,set #1
1970-01-01 00:00:22.553447032,3.813260793685913,-0.15087376534938812,1.4372142553329468,251.31687672,34.43859432000001,-521.18445912,-246.70689887999998,-163.76189232000002,-86.24449392,-21.23969328000001,-36.27463632,50.0,set #1
1970-01-01 00:00:22.563395763,3.8135159015655518,-0.14836233854293823,1.4366286993026733,766.87446537,514.90602501,474.60231507,455.52674661,-345.88437702,-118.83001767,147.89782175999997,117.60079968,50.318471337579616,set #1
1970-01-01 00:00:22.573654199,3.813746929168701,-0.14612644910812378,1.4360827207565308,-68.43715164,-139.79875845,-430.84099656,-366.40870578,-172.55532177,136.68426642,-233.45559393,-207.36605331,50.63694267515923,set #1
1970-01-01 00:00:22.583831096,3.8139796257019043,-0.14374758303165436,1.435713529586792,703.6211364000001,672.82332936,688.77962712,546.93046512,-247.58850168,92.88020664000001,153.56013192,237.01052232,50.95541401273885,set #1
1970-01-01 00:00:22.593668008,3.8142361640930176,-0.14106673002243042,1.4353502988815308,1118.69775576,794.20520088,1218.9658571999998,1203.98184504,-215.17759224,49.518234480000004,458.08600656,157.50900048,51.273885350318466,set #1
1970-01-01 00:00:22.603696847,3.8144757747650146,-0.13833317160606384,1.4349874258041382,5.39236815,64.99631541000001,-72.0234723,55.68499794,-182.67004626000002,-17.9154066,37.63782204,46.71724941,51.59235668789809,set #1
1970-01-01 00:00:22.613663698,3.8147387504577637,-0.1352381408214569,1.4345709085464478,314.34116532,235.0873122,1069.3012784999999,606.9919752000001,-677.9797736400001,-51.41913816,-54.9275025,-116.33479962000001,51.910828025477706,set #1
1970-01-01 00:00:22.623614336,3.8150434494018555,-0.131940096616745,1.4341356754302979,-155.3228976,-128.37448416,1857.5722464,1412.7762230399999,-441.27762432,-24.75899712,532.4203248000001,439.65863136,52.22929936305732,set #1
1970-01-01 00:00:22.633928562,3.8153302669525146,-0.12862706184387207,1.4338141679763794,-830.0831752199999,-654.4446433200001,-3024.09940248,-2263.2153998999997,-557.67340044,-345.59554146000005,-664.5283554,-547.97407704,52.54777070063694,set #1
1970-01-01 00:00:22.643562580,3.815584897994995,-0.12507784366607666,1.4335460662841797,-59.5872966,-70.3135446,-392.8399956,-429.94330080000003,-671.4076044,-162.2484318,-136.1256702,-128.88801120000002,52.866242038216555,set #1
1970-01-01 00:00:22.653422857,3.815826892852783,-0.12141453474760056,1.4333281517028809,-351.88024365,-397.95485964,-1324.13021247,-1278.1558791300001,-117.84351657,25.37563548,-588.77743665,-536.8650857700001,53.18471337579618,set #1
1970-01-01 00:00:22.663356090,3.815988063812256,-0.11798737198114395,1.4332982301712036,-502.98684149999997,-419.7304644,467.1557085,297.1539831,185.87024820000002,337.9221417,268.29973170000005,73.68867089999999,53.503184713375795,set #1
1970-01-01 00:00:22.673413301,3.81615948677063,-0.11450918763875961,1.4332554340362549,-185.34934548,11.288046899999983,-10.823215649999952,-226.27489832999998,141.97711554,474.00698592,190.15208355,299.55412227,53.82165605095541,set #1
1970-01-01 00:00:22.683959747,3.8163154125213623,-0.11065898835659027,1.4330756664276123,-53.45254239000001,-176.99261346000003,1179.5154438600002,885.8205486,-72.68868828000001,334.16563674,315.2044389,164.06003367,54.14012738853503,set #1
1970-01-01 00:00:22.693678880,3.8164608478546143,-0.10650988668203354,1.4328969717025757,700.7584272,634.4736528000001,1000.5952944000001,915.08196,88.6409472,832.5659472,285.2605392,242.06220480000002,54.458598726114644,set #1
1970-01-01 00:00:22.703918004,3.8165972232818604,-0.10210364311933517,1.4327044486999512,90.79499987999998,147.76531380000003,-761.01878892,-418.36838628,400.22478756,760.59241596,33.8357292,-175.49207676000003,54.77707006369427,set #1
1970-01-01 00:00:22.713515306,3.8167057037353516,-0.09758302569389343,1.4326003789901733,638.83797354,211.32433452,599.4659190000001,637.23621156,97.28311554,3198.8357076,405.4408488,94.90533,55.095541401273884,set #1
1970-01-01 00:00:22.723590875,3.816767930984497,-0.09295351058244705,1.4324253797531128,-633.5870775000001,-419.3388225,-3568.42317,-3228.49878,108.79249875,2639.788515,-561.20010375,-531.24157125,55.4140127388535,set #1
1970-01-01 00:00:22.733539606,3.8167998790740967,-0.08798497915267944,1.4322657585144043,318.48526086,378.91989486,788.4106526400001,806.14428882,-49.23455862,2642.32864506,469.64139456,539.2545139800001,55.73248407643312,set #1
1970-01-01 00:00:22.744248891,3.816805124282837,-0.08300364017486572,1.4321037530899048,168.06787998,238.2860454,410.31293199000004,359.0263872,388.88449626,3304.27079892,312.6156462,280.17780414,56.05095541401273,set #1
1970-01-01 00:00:22.753705049,3.8167710304260254,-0.07783054560422897,1.4319257736206055,-993.57331359,-818.98462932,-1348.56304323,-1319.40319095,0.12969527999999997,1744.18256805,-419.71394556,-101.85069375,56.36942675159236,set #1
1970-01-01 00:00:22.763650918,3.8166816234588623,-0.0724497064948082,1.4316916465759277,-346.5419724,-144.65863932,-546.35925864,-422.00000076000003,-315.29552418,399.1389831,-397.81389024,-370.05577206,56.68789808917197,set #1
1970-01-01 00:00:22.773586774,3.816535234451294,-0.06690144538879395,1.431405782699585,-115.1097675,33.381846419999995,-588.43482282,-251.91380448,-775.590465,-4125.73428306,-139.55640036,-62.0320935,57.00636942675159,set #1
1970-01-01 00:00:22.783357406,3.8163583278656006,-0.061091359704732895,1.4310394525527954,388.07512068000005,349.32659892000004,296.36511840000003,560.35040802,-1443.89711856,-5454.54346632,11.743399199999999,-27.48551286,57.324840764331206,set #1
1970-01-01 00:00:22.793864274,3.8161096572875977,-0.05517268180847168,1.430643916130066,83.77919784000001,269.09790414,-789.0771798000001,-234.04088916,23.868049140000004,-2054.4188964,-410.56317432000003,-46.9390116,57.64331210191082,set #1
1970-01-01 00:00:22.803657556,3.8157973289489746,-0.04901652783155441,1.4301717281341553,25.519411320000003,203.2565652,-266.49012156000003,-268.5812376,537.1535457599999,3381.17316108,-201.66813888000001,-96.4891746,57.961783439490446,set #1
1970-01-01 00:00:22.823411251,3.8154141902923584,-0.04275980964303017,1.429664134979248,-240.29987202000004,27.50926229999999,-821.2251364199999,-431.63826809999995,924.51147594,4614.3817125900005,-608.46747858,-340.16054865,58.28025477707006,set #1
1970-01-01 00:00:22.823415065,3.814987897872925,-0.036373160779476166,1.4291179180145264,-241.81410630000002,26.125924499999996,-825.6547922999999,-435.04455149999995,924.1336611,4613.23785585,-609.2439327,-340.58447475,58.59872611464968,set #1
1970-01-01 00:00:22.834824586,3.8145058155059814,-0.02984035387635231,1.428528070449829,548.8060663800001,380.14934802,2371.70471382,2189.26291584,492.9185157,2179.57625184,222.49768242,72.11502558000001,58.917197452229296,set #1
1970-01-01 00:00:22.843396926,3.8139495849609375,-0.023213308304548264,1.427955985069275,-381.11565102,-280.97698668,157.77758646,39.29693351999999,381.81846612,223.9407378,72.6211083,50.8921881,59.23566878980891,set #1
1970-01-01 00:00:22.853609825,3.813321828842163,-0.01646934635937214,1.4272903203964233,-957.93216675,-654.2067285,-3256.6507739999997,-2536.2258675,461.274099,346.05618450000003,-896.1163867500001,-514.1079742500001,59.554140127388536,set #1
1970-01-01 00:00:22.863349939,3.812633991241455,-0.009523475542664528,1.4265867471694946,-437.64748482,-338.25981501,-564.8885135400001,-430.51971534,581.65066284,587.0310451199999,-24.90361731,-78.94399344,59.87261146496815,set #1
1970-01-01 00:00:22.873565937,3.8118181228637695,-0.002488190308213234,1.425531268119812,402.71237564999996,507.75136932,507.57573360000004,584.6498739900001,173.25411636,-684.34765893,145.31935119000002,-43.545280350000006,60.19108280254777,set #1
1970-01-01 00:00:22.883676315,3.8109912872314453,0.0046081566251814365,1.4248261451721191,349.44716235,457.3366005,1409.25795465,1083.01051755,-63.098917050000004,-1123.11278625,696.70319745,356.55959235,60.509554140127385,set #1
1970-01-01 00:00:22.893414760,3.810044527053833,0.011728665791451931,1.4238369464874268,445.93716959999995,439.738026,769.8809820000001,798.2552760000001,26.39209559999999,-1287.3069924,51.6493692,-106.8834468,60.828025477707,set #1
1970-01-01 00:00:22.904025817,3.8090660572052,0.018856022506952286,1.4230384826660156,369.49772652,323.21122665,369.09013596,386.57233212,335.06416515,-2144.0973933600003,166.58340153,166.87934367,61.146496815286625,set #1
1970-01-01 00:00:22.913435245,3.8080029487609863,0.0262039415538311,1.4222313165664673,-44.625537450000024,-56.47343910000001,37.593121800000006,38.98331579999996,-262.62315495,-2035.71824625,61.75693290000001,-27.539149949999995,61.46496815286624,set #1
1970-01-01 00:00:22.923332000,3.806847333908081,0.0335596427321434,1.4213241338729858,-215.52179999999998,22.074000000000012,-714.28188,-505.72392,23.25024,-3435.0888,-223.11588,-170.91828,61.78343949044586,set #1
1970-01-01 00:00:22.933869625,3.805577039718628,0.041037000715732574,1.420493483543396,533.5901025000001,747.35149125,1325.27221125,1178.891805,-766.44082125,-5631.756975,192.04141124999998,106.64140499999999,62.101910828025474,set #1
1970-01-01 00:00:22.944813037,3.8042078018188477,0.04860413074493408,1.4195947647094727,-1180.76085231,-901.87399263,-3870.55108713,-3014.52519225,-218.82940677000002,-2407.1505042,-1212.61329618,-881.8723871100001,62.42038216560509,set #1
1970-01-01 00:00:22.953506494,3.80275297164917,0.05616569146513939,1.4187265634536743,-14.906080800000002,132.1036431,529.90872324,479.47970304,529.0678949400001,1113.11586672,85.94436162,113.47730706,62.73885350318471,set #1
1970-01-01 00:00:22.963672185,3.801137685775757,0.06388027966022491,1.4178926944732666,116.07034725,230.78973645,109.43926890000003,-83.14976084999999,301.0657806,4160.25131535,-144.3321555,-112.87648515000001,63.05732484076433,set #1
1970-01-01 00:00:22.973695302,3.799379825592041,0.0715956762433052,1.4170821905136108,-395.80340436000006,-219.00226998,-301.83223902,-225.33936906000002,157.5390609,3136.71556146,-67.94846604,-170.83648764,63.37579617834395,set #1
1970-01-01 00:00:22.983778501,3.7975358963012695,0.0792996808886528,1.416285514831543,208.66661322,520.60430682,73.55199657000001,217.93899699000002,-37.53976824,1277.94992403,311.75484561,135.29507667000001,63.69426751592356,set #1
1970-01-01 00:00:22.994001174,3.7955963611602783,0.08700386434793472,1.4155128002166748,964.06804728,925.35237834,303.68992134,380.31511284000004,131.90378837999998,2878.72420134,515.8167136200001,429.83957016,64.01273885350318,set #1
1970-01-01 00:00:23.003909612,3.793522596359253,0.09475552290678024,1.4147367477416992,391.74330624,369.13981416,795.77539704,607.2215744399999,269.64974868,4056.08425872,308.03396832,147.3749472,64.3312101910828,set #1
1970-01-01 00:00:23.013495231,3.791346311569214,0.10243477672338486,1.4140053987503052,90.58229505,283.75847838000004,-122.96973195,91.85830992000001,-36.392172959999996,2995.7337941700002,0.1909896300000007,116.69311485,64.64968152866241,set #1
1970-01-01 00:00:23.023805881,3.789048910140991,0.11016006767749786,1.413284182548523,426.64620257999997,484.00137825,358.13015511000003,378.1853205,-169.10630256,1796.00066529,51.576223139999996,165.62600262,64.96815286624204,set #1
1970-01-01 00:00:23.034110332,3.7866880893707275,0.11779090017080307,1.4127182960510254,-259.02591156,-259.67308380000003,500.89187772,430.99464720000003,-95.147052,78.14365416000001,-261.53557404000003,-312.11468964,65.28662420382166,set #1
1970-01-01 00:00:23.043262506,3.784149169921875,0.12549254298210144,1.4121960401535034,163.7016108,171.31153494,298.45031814000004,351.90986298,-509.40818916,-2439.40839714,-338.96017739999996,-211.43500794,65.60509554140127,set #1
1970-01-01 00:00:23.053682590,3.7814884185791016,0.13329198956489563,1.4116407632827759,5.229018599999996,63.1125417,-202.24595040000003,-163.0071105,-393.13739400000003,-5123.7052191,-393.6801453,-190.6983897,65.92356687898089,set #1
1970-01-01 00:00:23.063970590,3.7787508964538574,0.14088638126850128,1.4112056493759155,-75.45278130000003,-52.2362646,559.5235503,638.0970453,-927.8560317,-6033.8962593,-40.07778449999999,42.6138141,66.2420382165605,set #1
1970-01-01 00:00:23.073647047,3.7758803367614746,0.1484779715538025,1.4107714891433716,258.89184048000004,289.02509883,526.86610431,534.90764145,-1362.03864693,-4879.15649637,101.84562375,108.16616226000001,66.56050955414013,set #1
1970-01-01 00:00:23.083811069,3.77293062210083,0.1559145748615265,1.4103643894195557,82.67772201,178.81198296,-113.04269769,-119.51193735000001,-564.97005474,-4239.81347322,-6.37397202,35.81225973,66.87898089171975,set #1
1970-01-01 00:00:23.093242908,3.7697203159332275,0.16359223425388336,1.4100637435913086,396.46812504,267.14164776,-57.49814460000002,-91.92602484000001,103.88109264,-576.3811903200001,44.99655888,98.50055436,67.19745222929936,set #1
1970-01-01 00:00:23.103844190,3.7663872241973877,0.17127323150634766,1.409698724746704,230.7066645,257.8871841,105.0033504,-68.8937145,-48.947414099999996,-1354.7648361000001,-30.678148799999995,2.093527799999997,67.51592356687898,set #1
1970-01-01 00:00:23.113498235,3.7630224227905273,0.1787242293357849,1.4093948602676392,249.84800295,148.6216641,4.6178515499999975,239.55479534999998,-166.43205735,-3375.0014902499997,439.47493199999997,186.2933436,67.83439490445859,set #1
1970-01-01 00:00:23.123393798,3.7595293521881104,0.1861819326877594,1.4090551137924194,146.49145991999998,133.43095272000002,-938.18952708,-583.6752433199999,64.0446573,-2502.7821967200002,41.58754626,54.28523646000001,68.15286624203821,set #1
1970-01-01 00:00:23.133868480,3.755831003189087,0.1937633901834488,1.408700704574585,-52.51577760000001,96.6826224,-572.2496831999999,-487.9824768000001,78.4806672,-2053.1554368,112.4028048,10.294876799999997,68.47133757961782,set #1
1970-01-01 00:00:23.143845821,3.752180576324463,0.20106381177902222,1.4082958698272705,278.53807137,171.18690771,-308.74166661000004,-170.81316174,61.582341209999996,469.8155748,143.29635606,62.476427910000005,68.78980891719745,set #1
1970-01-01 00:00:23.153486991,3.748438596725464,0.208317831158638,1.4078869819641113,97.57346157,170.76089004,-452.46374900999996,-499.86926886,502.08088476,5947.76363103,212.79948807,135.26934369,69.10828025477707,set #1
1970-01-01 00:00:23.163417125,3.7445428371429443,0.21559327840805054,1.4074488878250122,668.966415,508.12909875,519.65418375,386.93913375,1213.02792,5786.11122375,259.165725,321.00904875,69.42675159235668,set #1
1970-01-01 00:00:23.173676038,3.7404820919036865,0.22286854684352875,1.406972050666809,-163.72477211999998,-138.37038072,231.02101464,306.00307062,1156.33718304,4916.31842832,184.26708222,19.87431498,69.7452229299363,set #1
1970-01-01 00:00:23.183383012,3.7363696098327637,0.2300111949443817,1.4065803289413452,277.97569956,376.62568164000004,-65.05713708,-130.7108634,450.17939772,2881.8138492,-157.88262672,156.85428252,70.06369426751591,set #1
1970-01-01 00:00:23.194891954,3.7322604656219482,0.23700591921806335,1.4062602519989014,-455.43663204,-424.73511366,-1784.3096161800001,-1338.0698253,295.69575984000005,839.3674185,-371.46738408,-278.6886297,70.38216560509554,set #1
1970-01-01 00:00:23.204679275,3.727907657623291,0.24409900605678558,1.4057868719100952,849.50729175,602.604405,1462.8920085000002,1304.106843,-275.09167725000003,-2189.95049325,345.25848825,282.100923,70.70063694267516,set #1
1970-01-01 00:00:23.215534235,3.7233519554138184,0.25130006670951843,1.4052568674087524,12.738131250000002,46.529340000000005,-336.06280305,-204.96164910000002,-599.4019784999999,-5758.29033,-283.98230835000004,-57.1877475,71.01910828025477,set #1
1970-01-01 00:00:23.223695779,3.7187442779541016,0.2583310604095459,1.4047857522964478,-408.50405271000005,-390.52149279,-841.25362035,-819.09602619,-897.54096744,-4758.52464048,-337.65896073,-77.15374992000001,71.3375796178344,set #1
1970-01-01 00:00:23.233856702,3.7139980792999268,0.265431672334671,1.4043251276016235,185.84598864,84.03105437999999,-74.11412892000003,255.69724908,-383.35898484,-4043.8174842,-116.485512,-61.71698988,71.656050955414,set #1
1970-01-01 00:00:23.244389081,3.7092444896698,0.2722999155521393,1.4038665294647217,-632.7593883,-535.73388219,-1869.2261480099999,-1399.36170465,141.88224921,-702.54176343,-614.1239847600001,-445.88696334,71.97452229299363,set #1
1970-01-01 00:00:23.253997827,3.7042548656463623,0.27925974130630493,1.4034385681152344,-246.68295483,-257.84710809,-591.90591915,-513.24379938,361.30287804,4242.18251613,-414.30219948,-206.3609301,72.29299363057325,set #1
1970-01-01 00:00:23.266597295,3.699171304702759,0.28621283173561096,1.4029216766357422,-64.47336285,156.0663624,-136.49574705,-24.138989549999998,594.4760445,5571.8117461500005,-39.78969345,-17.9308038,72.61146496815286,set #1
1970-01-01 00:00:23.273690963,3.6940345764160156,0.29298147559165955,1.4023840427398682,61.986319200000004,-120.94760262,877.8956612400001,751.9246254000001,110.04985017,2844.44753424,-52.33435506,12.755257320000002,72.92993630573248,set #1
1970-01-01 00:00:23.283596778,3.6888020038604736,0.29968565702438354,1.401843547821045,-680.91399402,-575.31195462,-1311.0827652,-1244.73919908,-713.1405918,-3021.7041426,-511.78598094000006,-460.5262506,73.24840764331209,set #1
1970-01-01 00:00:23.293626094,3.683469533920288,0.3063480257987976,1.4012831449508667,-63.2650161,82.1373501,-12.24593604,-74.62235898,-710.8505352,-4742.45473962,-107.4111831,42.58477626,73.56687898089172,set #1
1970-01-01 00:00:23.303800369,3.677993059158325,0.3129848837852478,1.4006648063659668,16.396262219999997,121.97444259000001,-265.27440107999996,-234.72689604,-83.55095268,-2968.07571684,41.294668349999995,136.4496315,73.88535031847134,set #1
1970-01-01 00:00:23.313709760,3.672456979751587,0.3195274770259857,1.400046706199646,-670.0899504,-608.8569552,-659.0412192000001,-905.8210511999999,-149.74964160000002,-2406.2907024,-132.19508639999998,153.02882400000001,74.20382165605095,set #1
1970-01-01 00:00:23.323638463,3.666848659515381,0.32597312331199646,1.3993719816207886,401.2801026,418.07409462000004,774.66328329,728.8562587800001,214.35911172000002,-152.41145166,210.42013395,55.45212426,74.52229299363057,set #1
1970-01-01 00:00:23.334966922,3.6611411571502686,0.332326203584671,1.3986806869506836,-284.42406408000005,-408.71891112000003,-884.69870112,-819.06300528,366.49584582,2846.4845260800003,-392.23095678,-377.48781642,74.84076433121018,set #1
1970-01-01 00:00:23.343826080,3.655259370803833,0.3386649787425995,1.398037075996399,889.6916496,770.98788,1694.3201184000002,1474.2662064,99.628152,1510.5038208,431.39210399999996,334.3499952,75.1592356687898,set #1
1970-01-01 00:00:23.353688503,3.649446487426758,0.34485992789268494,1.3973456621170044,-306.33561192,-194.54325618000001,-246.85061505,-306.1843278,234.52035828,1789.25293287,-60.01464807,9.326090670000001,75.47770700636943,set #1
1970-01-01 00:00:23.363843704,3.6434340476989746,0.35100579261779785,1.3967353105545044,-534.56206128,-561.1802788800001,-1333.5024768,-1264.04578872,543.13222392,5343.434803200001,-494.82822168,-272.10268176,75.79617834394904,set #1
1970-01-01 00:00:23.373854900,3.6372427940368652,0.35711315274238586,1.3961278200149536,-231.83939999999998,-185.329404,-344.43142500000005,-229.42335,201.73483199999998,5059.4973,-197.37896099999998,-69.58586700000001,76.11464968152866,set #1
1970-01-01 00:00:23.384711051,3.630892753601074,0.36317193508148193,1.3955140113830566,-1604.9245933500001,-1138.12075377,-1701.7604483100001,-1588.33970763,540.59720442,4180.29869673,-445.90324389,-336.63187467,76.43312101910827,set #1
1970-01-01 00:00:23.393750930,3.6246418952941895,0.36923518776893616,1.394895315170288,114.0996636,-17.4223959,257.4232128,295.7781372,87.1954005,3166.4977071000003,117.86922419999999,117.89316240000001,76.7515923566879,set #1
1970-01-01 00:00:23.403603101,3.618173122406006,0.3752012252807617,1.3943419456481934,233.63506374,261.86773509,-136.44351474,-123.76034852999999,-325.55387046000004,244.23239958,-73.28614839000001,37.604454419999996,77.07006369426752,set #1
1970-01-01 00:00:23.413593078,3.611262798309326,0.38097646832466125,1.3937307596206665,-120.99289722,-131.08533204,605.41331682,401.36887986,-727.3607437200001,-4552.6006617,280.45587804,233.2636449,77.38853503184713,set #1
1970-01-01 00:00:23.423606897,3.6047110557556152,0.3867347538471222,1.3931938409805298,-86.09458962000001,-209.00104563,-212.70596958000002,-134.91436803000002,-406.99595079,-5193.104267520001,69.93775425,107.07245094,77.70700636942675,set #1
1970-01-01 00:00:23.433570171,3.5978848934173584,0.392499715089798,1.392659306526184,-360.64376907,-341.88286704,-1237.9939923000002,-1091.91417075,-48.88036179,-4275.5340111900005,-202.91583974999998,-61.612442970000004,78.02547770700636,set #1
1970-01-01 00:00:23.444055820,3.590973377227783,0.3981104791164398,1.3921211957931519,544.1003724000001,317.2941096,-295.8632664,-80.6171028,438.8644182,-976.8802992,-18.060915599999998,-15.3119304,78.34394904458598,set #1
1970-01-01 00:00:23.454282070,3.583775520324707,0.40334275364875793,1.391512393951416,-188.7742194,-208.0416936,-579.9712269,-591.9080076,692.1428319,2153.6834748,-248.4803139,-166.79975910000002,78.6624203821656,set #1
1970-01-01 00:00:23.463664318,3.577051877975464,0.40835660696029663,1.3909295797348022,-951.34708578,-824.8397859,-2186.69603958,-1898.15452398,684.9204679200001,5041.6086013799995,-660.55557828,-446.14351236,78.98089171974522,set #1
1970-01-01 00:00:23.473699832,3.5702991485595703,0.4133317172527313,1.3903697729110718,-447.5066544,-288.16366176,-613.281552,-582.77706552,414.9721212,4909.90092216,-269.96677968,-211.73971415999998,79.29936305732484,set #1
1970-01-01 00:00:23.483756090,3.5634517669677734,0.41827890276908875,1.3897442817687988,-299.3232723,-469.48653570000005,265.69578359999997,182.2663401,-154.3347702,1771.7967735,94.80155880000001,174.2330616,79.61783439490445,set #1
1970-01-01 00:00:23.493638778,3.5566790103912354,0.42305681109428406,1.3890936374664307,-174.84344826,-27.84895386,-625.7951115000001,-496.46922156,-535.9969843800001,-4717.7438958,-255.1078959,-146.89247508,79.93630573248407,set #1
1970-01-01 00:00:23.503755117,3.5499699115753174,0.4276876151561737,1.388439416885376,-100.95356154000001,-112.63788237,-1385.4116897400002,-1123.10562819,-564.98028951,-5330.20440459,-224.52596868,-102.01807356,80.2547770700637,set #1
1970-01-01 00:00:23.513633752,3.543219804763794,0.43223366141319275,1.3877917528152466,-83.00215248,-291.93360456000005,516.68871696,327.62339688000003,-712.65220104,-5085.8766067199995,-45.300240960000004,-24.5917308,80.5732484076433,set #1
1970-01-01 00:00:23.523479486,3.5363268852233887,0.4367609918117523,1.3871161937713623,-298.57225944000004,-330.01710534,-938.98803726,-789.6460837200001,-185.92907268,-3470.23152762,-333.02703174000004,-253.36707084,80.89171974522293,set #1
1970-01-01 00:00:23.533508087,3.529496669769287,0.4411550760269165,1.3864068984985352,168.80963970000002,199.96907424,340.58745513,366.73790166,398.16422489999997,2604.3207017100003,8.37977946,-114.45760482,81.21019108280254,set #1
1970-01-01 00:00:23.543666864,3.5227603912353516,0.4454188644886017,1.3857460021972656,309.60208032,-6.216911999999997,-78.80398032,56.50108464,837.21877824,5873.64483888,110.79509376,24.09394416,81.52866242038216,set #1
1970-01-01 00:00:23.553891206,3.5161070823669434,0.44954225420951843,1.38514244556427,-219.89170866,-140.56580304,266.64073566,152.54172336000002,1400.08657386,4872.99395076,210.3339537,249.99548652000001,81.84713375796179,set #1
1970-01-01 00:00:23.563638950,3.5095295906066895,0.4535861909389496,1.3844999074935913,280.6450335,113.937993,634.383555,588.62856,1830.8225715,4181.665644,133.327896,-114.9199155,82.1656050955414,set #1
1970-01-01 00:00:23.573581958,3.5031142234802246,0.4574284255504608,1.3838694095611572,548.61340404,371.24854416,192.58662618,291.8010342,321.95662746,1080.43370292,88.20333912,153.748647,82.48407643312102,set #1
1970-01-01 00:00:23.583495880,3.4967470169067383,0.4611627161502838,1.3832141160964966,-317.12636280000004,-129.1044612,230.861748,134.1705456,312.8920236,-306.18329040000003,-81.82081440000002,-164.6775624,82.80254777070063,set #1
1970-01-01 00:00:23.593904043,3.490359306335449,0.4648112654685974,1.3825526237487793,-194.54154252,-195.82550754,-487.0936395,-413.49371270999995,104.6676969,1025.14124895,-58.451101799999996,-100.66171596000001,83.12101910828025,set #1
1970-01-01 00:00:23.603558803,3.483968496322632,0.4683563709259033,1.3818323612213135,150.0181176,269.61933102,-196.20392337,-136.42834218000002,-315.26845311,-9.821487000000003,132.09928134,101.79176943,83.43949044585987,set #1
1970-01-01 00:00:23.613579298,3.477572202682495,0.47179797291755676,1.3810757398605347,511.68570024,107.34493068,1200.5793813,1134.59738808,-591.79242564,-2373.5593892399997,487.58593416,373.90302846000003,83.75796178343948,set #1
1970-01-01 00:00:23.623596693,3.4712154865264893,0.47512686252593994,1.3803907632827759,-589.41420096,-810.6860712600001,-347.87228307,-374.58770583,-462.74383467,-3313.35027777,-187.33303563,-165.26327025,84.07643312101911,set #1
1970-01-01 00:00:23.633725906,3.4648523330688477,0.4783574938774109,1.379709005355835,309.79528632,593.81076534,62.52522666,126.10936025999999,-677.0481159000001,-4472.07183072,100.38124121999999,139.72658778,84.39490445859872,set #1
1970-01-01 00:00:23.643673921,3.4584152698516846,0.48154619336128235,1.3790072202682495,1246.34235453,1058.56705539,1578.94858797,1535.76143799,-344.79309384,-5141.4990978000005,452.83842747,345.30983643,84.71337579617834,set #1
1970-01-01 00:00:23.653645301,3.452054738998413,0.4846362769603729,1.3784772157669067,326.94000651,409.22983725,507.21560760000006,394.78032984,-469.81496094,-4382.46969186,151.00837167,184.65165654,85.03184713375796,set #1
1970-01-01 00:00:23.663497234,3.445693254470825,0.4876054525375366,1.3779423236846924,60.63414162000001,110.61347232,-287.46401579999997,-295.67044884,-91.50113388000001,-3577.4538189000004,-368.91709452,-233.91585828,85.35031847133757,set #1
1970-01-01 00:00:23.673669839,3.4392733573913574,0.49050211906433105,1.3774328231811523,472.08500937,413.42313519000004,1456.24113414,1374.3417207,-375.42753495,-2558.52647427,339.891279,256.30993947,85.6687898089172,set #1
1970-01-01 00:00:23.683663154,3.4330267906188965,0.49325117468833923,1.3769851922988892,-826.89607572,-774.92347452,-544.84899924,-575.2528485600001,-415.22374998000004,-1459.21957272,-514.77451272,-488.56062216,85.9872611464968,set #1
1970-01-01 00:00:23.693443084,3.426868200302124,0.4958953857421875,1.3765918016433716,-587.02588152,-85.724379,-679.4083904400001,-467.37538068000003,-989.6328717600001,-3910.55089464,-359.87333928,-275.79994884,86.30573248407643,set #1
1970-01-01 00:00:23.703456426,3.4207515716552734,0.49843141436576843,1.3762775659561157,-596.02880844,-477.37748916,-732.7601907600001,-654.7636258800001,-550.88874048,-2843.74045722,-415.43564634,-414.16797708,86.62420382165605,set #1
1970-01-01 00:00:23.713713670,3.4147250652313232,0.5008488893508911,1.3759351968765259,273.5809089,193.5218883,132.10099499999998,164.6993751,-593.4169371,-2901.0322848,54.4542375,66.4359306,86.94267515923566,set #1
1970-01-01 00:00:23.723588014,3.408644437789917,0.5032101273536682,1.375556468963623,-256.93097664,-61.74184536,-193.00960146,-99.24090852,-467.38203954,-2322.58788216,-302.1418374,-249.04267206,87.26114649681529,set #1
1970-01-01 00:00:23.733709121,3.402639389038086,0.5054340362548828,1.3751835823059082,-319.37774154,-228.31707327,-949.8741173999999,-828.32617803,-414.51231042,-2096.00624649,-320.09738397,-213.04109307000002,87.5796178343949,set #1
1970-01-01 00:00:23.743620897,3.39664363861084,0.5075504183769226,1.3748085498809814,-301.42563672,-171.48351870000002,-399.81742788,-514.4418103500001,-188.64244269,2699.30016291,-113.12883075,126.69322145999999,87.89808917197452,set #1
1970-01-01 00:00:23.753518367,3.390665054321289,0.5095712542533875,1.3744115829467773,737.53708353,601.91892969,662.7755994600001,582.09971352,-419.68851327,6388.9800000000005,307.12662864,319.09882758000003,88.21656050955414,set #1
1970-01-01 00:00:23.763559366,3.384765148162842,0.511523962020874,1.3740203380584717,16.39135134,-275.2304178,-141.48716711999998,-115.51046988,-924.36338826,2578.23256236,27.092637,148.71913836000002,88.53503184713375,set #1
1970-01-01 00:00:23.773437524,3.3788671493530273,0.5133808851242065,1.3736257553100586,-182.6901102,16.698700199999994,64.10716728,169.96847556,-254.91155976000002,-2060.53277196,73.0518282,32.78376660000001,88.85350318471338,set #1
1970-01-01 00:00:23.783446575,3.3732240200042725,0.5151065587997437,1.3733489513397217,-700.139271,-835.0856670000001,-185.58826650000003,-128.24486025,-7.041352500000004,1295.0467334999998,16.807956749999995,-16.498053,89.17197452229298,set #1
1970-01-01 00:00:23.793652559,3.3676350116729736,0.516785204410553,1.3729898929595947,173.75230197,272.02769997,119.23866864000001,220.61909103,-220.55919950999998,3483.26963088,114.43160547,52.25616318,89.49044585987261,set #1
1970-01-01 00:00:23.803607965,3.362152576446533,0.5183528065681458,1.3726476430892944,-29.4958209,-11.877227699999992,-180.8723748,-44.8817811,-164.1768921,6388.9800000000005,43.267284450000005,59.98862414999999,89.80891719745223,set #1
1970-01-01 00:00:23.813589836,3.356923818588257,0.5198209881782532,1.3723291158676147,336.272625,15.93099144,1246.28020296,887.67021252,-5.35348632,5812.4228089200005,296.48616504,363.9070734,90.12738853503184,set #1
1970-01-01 00:00:23.823529506,3.351769208908081,0.5212337970733643,1.3719695806503296,161.11852847999998,223.25974398,369.89922138,363.94378098,389.04051732,5100.7079448,135.92588256000002,72.97040634,90.44585987261146,set #1
1970-01-01 00:00:23.833492780,3.3465888500213623,0.5225390791893005,1.3715403079986572,-665.3548356,-652.7086566,-690.3154751999999,-509.3956062,-105.3049452,4372.2194178,-371.5862358,-361.43778840000004,90.76433121019107,set #1
1970-01-01 00:00:23.844004894,3.3417117595672607,0.5238115787506104,1.3711726665496826,292.44275736000003,667.4856505199999,421.01678580000004,450.37207878,-68.00760018,4240.030041,51.68931924,129.24556008,91.0828025477707,set #1
1970-01-01 00:00:23.853886152,3.336949348449707,0.5250170230865479,1.3708120584487915,410.04323568,339.84036528,325.99109088,76.11660264,713.63041152,3392.95325616,-55.60352615999999,0.4287191999999962,91.40127388535032,set #1
1970-01-01 00:00:23.864112878,3.3322811126708984,0.526174008846283,1.37040114402771,-122.33108472,-37.506999660000005,-230.30282886,-134.8201335,-232.9112331,2576.43068748,-210.00259644,-285.94035443999996,91.71974522292993,set #1
1970-01-01 00:00:23.873601699,3.3278517723083496,0.5272468328475952,1.3700320720672607,493.98819678,634.13356188,484.24197978,565.0143915000001,-185.96420895,1140.77347332,99.5692698,90.90341247,92.03821656050955,set #1
1970-01-01 00:00:23.883670593,3.323620080947876,0.5282745957374573,1.3696818351745605,-53.41400727,191.98739508,637.56444843,542.5531944300001,-716.9052224100001,-1192.42118931,317.54363628,330.8584461,92.35668789808916,set #1
1970-01-01 00:00:23.893414999,3.3196005821228027,0.529238224029541,1.369303822517395,-751.16550171,-734.31768891,-872.25300903,-821.8376458500001,-503.34186708,-6388.9800000000005,-414.15295662,-363.27742932,92.67515923566879,set #1
1970-01-01 00:00:23.903546834,3.3156981468200684,0.5301634073257446,1.3688969612121582,-195.03902184,-342.07698642,-226.5046797,-119.45048076,-237.9838734,-5194.897466460001,-104.77104143999999,-124.70195478,92.99363057324841,set #1
1970-01-01 00:00:23.913583065,3.3120038509368896,0.5310303568840027,1.3684760332107544,-1506.99353415,-958.5167904,-2038.6503228,-1805.2222539000002,-100.27369755,-5631.57451155,-682.9241620500001,-542.71790625,93.31210191082802,set #1
1970-01-01 00:00:23.923604036,3.3085057735443115,0.5318835973739624,1.3680135011672974,20.1007404,269.82682272,159.31430892,202.16044055999998,-24.4991682,4898.31013152,13.13040768,92.1501828,93.63057324840764,set #1
1970-01-01 00:00:23.933577562,3.3051602840423584,0.5326932072639465,1.3675421476364136,41.603619720000005,43.480117979999996,-214.61287535999998,-78.88260978000001,-138.38411808,3261.11042322,60.008672100000005,57.388855680000006,93.94904458598725,set #1
1970-01-01 00:00:23.943359876,3.3020431995391846,0.5334503650665283,1.3670880794525146,-1127.99941956,-1045.4613592800001,-876.4374652800001,-825.74513424,282.94278948,4219.01841192,-523.588299,-464.96024484000003,94.26751592356688,set #1
1970-01-01 00:00:23.953532482,3.2990338802337646,0.5342020988464355,1.3666770458221436,-640.0541082000001,-801.5630422800001,-912.3701378999999,-719.3187339000001,539.3297231399999,3800.46694014,-213.99241188,-149.63656266,94.5859872611465,set #1
1970-01-01 00:00:23.963234687,3.2962429523468018,0.5349072813987732,1.3662583827972412,380.38007124,574.34587626,513.54594759,447.19104066,630.82513143,3801.3567306,128.16575031,344.19031218,94.90445859872611,set #1
1970-01-01 00:00:23.973556066,3.2936651706695557,0.5355669260025024,1.3658878803253174,609.88109208,399.80802732,1138.67337402,1059.1718045999999,641.24066214,2676.34637088,401.30926836,277.78322208000003,95.22292993630573,set #1
1970-01-01 00:00:23.983542467,3.2911899089813232,0.5361945033073425,1.3655292987823486,-209.14902957,-189.71153253,-512.1955917,-353.68622484,565.83223671,2672.2855563300004,-172.56376332,-175.26871596,95.54140127388534,set #1
1970-01-01 00:00:23.993768716,3.289062261581421,0.5367816090583801,1.365216851234436,-218.48759088,-267.26784864,-181.67010576,-218.7889392,513.24889044,2074.2139392,-201.11065104,-205.46222736,95.85987261146497,set #1
1970-01-01 00:00:24.003530050,3.2870535850524902,0.53737473487854,1.3648403882980347,213.52632599999998,37.579659,1804.698987,1649.829246,193.9446015,1353.129765,269.7715995,217.613175,96.17834394904457,set #1
1970-01-01 00:00:24.013419891,3.285176992416382,0.537935733795166,1.364555835723877,-235.04885819999998,-98.45013399,201.29175182999998,236.48537367,410.38552347,2470.95774549,41.93892144,-114.09327813,96.4968152866242,set #1
1970-01-01 00:00:24.023480201,3.2835304737091064,0.5384587049484253,1.3642703294754028,128.42962626,416.37305462999996,-466.42134162,-377.60932677,691.06859367,1842.49334451,-107.42195256,-48.4856229,96.81528662420382,set #1
1970-01-01 00:00:24.033582712,3.2821288108825684,0.5389444231987,1.363983154296875,229.09547544,-105.62684184000001,201.32151624,360.47086608,691.9126125600001,1576.26878448,-14.11723248,-75.38067264,97.13375796178343,set #1
1970-01-01 00:00:24.043471837,3.2808732986450195,0.5394517779350281,1.3637043237686157,-664.44983124,-335.51187384,-96.90942495,-23.22122556,559.10048844,1052.50761096,45.65770872,50.10655416,97.45222929936305,set #1
1970-01-01 00:00:24.053868080,3.279956579208374,0.5398731827735901,1.363445520401001,-825.2571912000001,-994.4271168,-1737.327072,-1371.4567776,180.18,137.7802608,-570.3809592000001,-610.5495864000001,97.77070063694266,set #1
1970-01-01 00:00:24.063463474,3.2791407108306885,0.5402469038963318,1.3632367849349976,160.23745764,506.69230872,-174.49397628,50.31158418,-49.5287364,675.89057562,69.27216738,99.85931202,98.08917197452229,set #1
1970-01-01 00:00:24.073624397,3.2786366939544678,0.5405807495117188,1.3630414009094238,446.91406149,731.28480516,692.83876272,714.21484953,-189.59093634,1154.98405932,252.85653822,235.25372052,98.40764331210191,set #1
1970-01-01 00:00:24.083662773,3.278374671936035,0.5408920645713806,1.3628878593444824,-1084.9141442100001,-1496.27540673,-1693.06961187,-1553.96845929,-114.46678073999999,672.27592185,-623.99682462,-617.84704605,98.72611464968152,set #1
1970-01-01 00:00:24.093536878,3.278442621231079,0.5411698222160339,1.3627805709838867,563.5220229600001,577.7399316,-367.8970776,-244.2172317,-32.75665068,741.91948974,-189.64333674,-131.86580706,99.04458598726114,set #1
1970-01-01 00:00:24.103464866,3.278862714767456,0.5413782596588135,1.3627082109451294,636.3535112999999,691.86316836,387.12236160000003,359.48614182000006,335.78897118,627.79243956,227.49949326,163.72387745999998,99.36305732484075,set #1
1970-01-01 00:00:24.113451505,3.2796220779418945,0.5415492653846741,1.362625241279602,-228.2667465,-41.73131040000001,-444.49828019999995,-471.71936174999996,30.516523050000004,423.26217375,-384.06456660000003,-91.6669572,99.68152866242038,set #1
1970-01-01 00:00:24.123527074,3.280637502670288,0.5416956543922424,1.3625719547271729,739.24975956,296.44892316,636.14250804,586.6343035799999,420.53546964000003,330.17520198,-65.85856134,17.04879306,100.0,set #1
1970-01-01 00:00:24.123527074,3.280637502670288,0.5416956543922424,1.3625719547271729,739.24975956,296.44892316,636.14250804,586.6343035799999,420.53546964000003,330.17520198,-65.85856134,17.04879306,0.0,set #2
1970-01-01 00:00:24.133624101,3.281951427459717,0.5418258905410767,1.3625818490982056,173.49044193,163.57838406,-940.28304864,-801.9971645400001,192.68667678,296.19870423000003,-302.39728662000005,-220.93568600999998,0.3067484662576687,set #2
1970-01-01 00:00:24.143406892,3.283700942993164,0.5418626070022583,1.362623929977417,-420.58759548,-337.43360196000003,-180.58033968,-171.25574544,417.2059242,217.31748480000002,-17.51394528,19.64499108,0.6134969325153374,set #2
1970-01-01 00:00:24.153877759,3.2857532501220703,0.541851282119751,1.3626800775527954,521.13300135,495.81049323,270.54012609,250.81036422,103.19538410999999,118.48683132000001,184.83516441,90.02941389000001,0.9202453987730062,set #2
1970-01-01 00:00:24.163665081,3.2880032062530518,0.541825532913208,1.3627785444259644,-153.61848372,98.92582089000001,14.969320470000007,-41.39049291,3.3552636,19.29201339,-42.175306289999995,-98.16201759,1.2269938650306749,set #2
1970-01-01 00:00:24.173397089,3.2906010150909424,0.5417642593383789,1.3629481792449951,-645.22989336,-432.90615108,-415.04041956000003,-431.34822627,302.84275164,67.24661775,57.04170147000001,123.30196631999999,1.5337423312883436,set #2
1970-01-01 00:00:24.183566833,3.293519973754883,0.5416194200515747,1.3631826639175415,195.63139518,361.76750298,244.78317552,328.24793703,322.87954686,111.22246005,227.98408776000002,255.38348199,1.8404907975460123,set #2
1970-01-01 00:00:24.193570400,3.2967467308044434,0.5413894057273865,1.363483190536499,-859.277328,-667.1795520000001,-667.543344,-516.168432,-9.072960000000002,-103.32816,-150.737496,-131.444976,2.147239263803681,set #2
1970-01-01 00:00:24.203632856,3.3001856803894043,0.5411366820335388,1.3637914657592773,546.2421619200001,753.13095624,640.48006152,571.7095956000001,68.10184992,11.235382079999999,185.82010824,198.22099128,2.4539877300613497,set #2
1970-01-01 00:00:24.213402057,3.303954601287842,0.5407804846763611,1.364188551902771,164.93463441,370.22113323,-126.89303874000001,-55.49742549,66.91307805,-25.418556929999998,165.51014259000002,143.30439318,2.7607361963190185,set #2
1970-01-01 00:00:24.223684097,3.3080430030822754,0.5403450727462769,1.3646886348724365,-298.63425969,8.715068700000003,-1006.38020184,-796.49449659,67.98540722999999,-125.05870415999999,-237.31647849,-118.22677035000001,3.067484662576687,set #2
1970-01-01 00:00:24.233427549,3.312356472015381,0.5397909283638,1.3652746677398682,-576.1541459700001,-910.12533378,-380.75577228000003,-372.33135147,3.250458120000001,-194.29918521000002,-241.35275853000002,-179.03228733,3.374233128834356,set #2
1970-01-01 00:00:24.243520999,3.3169946670532227,0.5391514897346497,1.365855097770691,16.685634030000003,212.06589378,-65.16236844000001,-31.01057115,174.9267273,-136.75499214,-17.45109327,51.24313272,3.6809815950920246,set #2
1970-01-01 00:00:24.253350282,3.321845293045044,0.538409948348999,1.3664829730987549,1253.3390890800001,942.0231717,824.08456572,850.3434771,-1.7759632799999991,-120.22024950000001,90.7831158,160.597515,3.9877300613496933,set #2
1970-01-01 00:00:24.263220335,3.3270702362060547,0.5375106334686279,1.367229700088501,774.4006179,933.0314389499999,1020.9843462,793.600548,213.51846749999999,-173.33494425,29.0385771,244.22284770000002,4.294478527607362,set #2
1970-01-01 00:00:24.273661638,3.332516670227051,0.5364580750465393,1.3679414987564087,-969.3416148,-1306.19067696,-322.16516436,-410.03031810000004,-113.50176708,-355.09836024,-411.57857598000004,-342.83182908,4.601226993865031,set #2
1970-01-01 00:00:24.285985494,3.338308095932007,0.5352624654769897,1.3686491250991821,-840.4408701,-731.13903798,12.769967339999994,-102.57171912000001,112.48706976,-254.72692986,-101.32242432000001,99.44077806,4.9079754601226995,set #2
1970-01-01 00:00:24.296136880,3.3439342975616455,0.5341542363166809,1.3696465492248535,267.9268176,494.08310639999996,205.5898728,268.6786128,-0.7457423999999993,-292.4339184,15.451956000000003,65.53875120000001,5.214723926380368,set #2
1970-01-01 00:00:24.306159044,3.3503527641296387,0.532593846321106,1.3702608346939087,659.74052352,593.1287778000001,307.09824444000003,400.13228892,49.468777800000005,-238.45985436,59.80257036,127.83121728,5.521472392638037,set #2
1970-01-01 00:00:24.316316390,3.357159376144409,0.5308659672737122,1.3709362745285034,13.054477800000003,-7.5928632,-228.7645269,-182.73279960000002,196.62837090000002,-298.8884769,-188.61880829999998,-165.9429759,5.828220858895706,set #2
1970-01-01 00:00:24.325981880,3.3640928268432617,0.528999924659729,1.3715275526046753,362.30379120000003,270.0279504,242.210982,248.02586639999998,30.452463599999998,-357.6724008,16.874676,58.852014,6.134969325153374,set #2
1970-01-01 00:00:24.336442495,3.3713483810424805,0.5269988775253296,1.3721216917037964,1820.35351485,1594.12653465,454.3112847,496.7874366,69.96129075,-304.0966071,164.73243539999999,173.91226515000002,6.441717791411043,set #2
1970-01-01 00:00:24.345856929,3.378235101699829,0.5251091718673706,1.3730473518371582,-782.71540425,-547.8680968799999,-393.24035283,-525.50615052,248.88221982,-425.01017325,-188.08167027000002,-176.19659538,6.748466257668712,set #2
1970-01-01 00:00:24.355608964,3.3859946727752686,0.5226919054985046,1.3735439777374268,-70.26897384,31.9772778,-32.821752599999996,-39.69678492,-94.68113928000001,-404.36730204,-85.48682532,1.9879969200000005,7.0552147239263805,set #2
1970-01-01 00:00:24.366057897,3.3939731121063232,0.5201322436332703,1.3740463256835938,509.32454858999995,445.27448082,681.3453468900001,643.95266598,145.95057087,-341.22534459,158.30895015,135.9558408,7.361963190184049,set #2
1970-01-01 00:00:24.376249099,3.401711940765381,0.517766535282135,1.3747107982635498,218.37908156999998,334.48944789,48.63160302,62.289333600000006,-14.23429722,-391.07706807,-59.819319300000004,44.89778904,7.668711656441718,set #2
1970-01-01 00:00:24.386143947,3.4100544452667236,0.5147613286972046,1.375077486038208,-403.57483413,-248.57719926,-238.40862084,-199.54211823,64.17880248,-360.3302469,-185.22341799,-62.905058190000005,7.975460122699387,set #2
1970-01-01 00:00:24.395759607,3.4184682369232178,0.5116104483604431,1.3754771947860718,88.75744527,104.06903208,509.58643398,482.82715338,51.58090665,-369.97860939,-24.15036624,16.69072353,8.282208588957054,set #2
1970-01-01 00:00:24.405945802,3.4266836643218994,0.5086618661880493,1.3761234283447266,32.722614600000014,-28.707150420000005,143.72722103999996,140.97608382000004,-133.56339282,-386.42988696000003,-182.58353256,-92.78346713999998,8.588957055214724,set #2
1970-01-01 00:00:24.416129375,3.435214042663574,0.5051448941230774,1.3763110637664795,-1328.12720625,-986.825775,-1072.705725,-826.3822125,107.01283125,-397.38001875,-420.74784375,-341.5790625,8.895705521472394,set #2
1970-01-01 00:00:24.426174188,3.443586826324463,0.501713216304779,1.3767609596252441,-75.32420064000002,-46.72147116000001,-54.739398480000006,58.52073708,-270.26680356,-329.22546696,-167.76406608000002,-58.944200640000005,9.202453987730062,set #2
1970-01-01 00:00:24.435956026,3.4522488117218018,0.49771788716316223,1.376846194267273,-983.58884442,-733.2736203,-1275.7890405,-1023.22911054,183.36097338,-291.04416666000003,-400.62335429999996,-367.65565122,9.50920245398773,set #2
1970-01-01 00:00:24.446197534,3.460952043533325,0.49357134103775024,1.3769376277923584,57.64796856,42.967420860000004,-380.32408908,-203.41836372,-305.4784434,-394.875,-283.06511844,-184.95372012,9.815950920245399,set #2
1970-01-01 00:00:24.455742860,3.46946120262146,0.48963668942451477,1.3773993253707886,-0.26284440000000586,93.7719432,-468.1617018,-365.736618,59.725614,-285.1624386,-160.5017856,-114.0583704,10.122699386503069,set #2
1970-01-01 00:00:24.465592409,3.478156805038452,0.4852934181690216,1.3777393102645874,-22.21519755,-187.79400276,-60.31998102,-7.66741287,179.1059127,-318.24900276,-204.61741287,-107.53444962,10.429447852760736,set #2
1970-01-01 00:00:24.476137186,3.487065315246582,0.48044514656066895,1.377898931503296,-401.82505194,53.16423762000001,-505.31754,-375.46987452,33.845736599999995,-284.11225908,-98.44286868,34.195151640000006,10.736196319018404,set #2
1970-01-01 00:00:24.486274982,3.4959511756896973,0.47574543952941895,1.3783226013183594,-44.44751922,-462.74116277999997,-507.7236333,-474.58442928,268.8566361,-369.89467164,-334.62630318,-208.58873412,11.042944785276074,set #2
1970-01-01 00:00:24.495605493,3.504906177520752,0.47053346037864685,1.3784903287887573,933.52147044,1108.58302308,476.8826478,502.51504173,-364.02506829000004,-406.12194245999996,202.20406323,315.45402213,11.349693251533743,set #2
1970-01-01 00:00:24.506669784,3.5137321949005127,0.4654560983181,1.3789798021316528,-45.47229648,-1007.8721952,-50.263150079999996,-9.802191359999998,133.13419704,-450.5636304,-170.73637152,-155.60717640000001,11.656441717791411,set #2
1970-01-01 00:00:24.516600156,3.522656202316284,0.4597671329975128,1.3792052268981934,-1470.20806608,-312.10501452,-287.35388448000003,-249.43542000000002,-62.56749876000001,-584.2133076,-430.5651714,-385.62427332,11.963190184049079,set #2
1970-01-01 00:00:24.525870824,3.5314748287200928,0.45424261689186096,1.379733681678772,1125.60686472,1792.9511652,653.9756620800001,2325.67717824,-26.5530096,-481.3499028,421.85143727999997,525.44377704,12.269938650306749,set #2
1970-01-01 00:00:24.536384607,3.540415048599243,0.4481680989265442,1.3799567222595215,1173.93158922,-9.646791960000002,481.14040221,515.23585347,47.83533027,-582.91499019,-117.29871815999999,-117.67326362999998,12.576687116564418,set #2
1970-01-01 00:00:24.546005035,3.5492124557495117,0.4422414004802704,1.3804974555969238,-56.3867538,924.645267,-252.0788205,3781.5301602,-95.89031010000001,-578.5807092,-19.8703635,175.79378114999997,12.883435582822086,set #2
1970-01-01 00:00:24.555905366,3.5577642917633057,0.43609705567359924,1.3809409141540527,-1434.92953812,-1229.4067016400002,-1000.7065044599999,5888.314056300001,-197.2391733,-690.9582459000001,-406.69845996,-210.81268572,13.190184049079754,set #2
1970-01-01 00:00:24.565899396,3.56632399559021,0.42953020334243774,1.381210446357727,-129.0316248,118.54660272000001,-244.11497136000003,5582.75180268,-419.88483576,-620.7717157200001,-6.070543440000002,180.5193546,13.496932515337424,set #2
1970-01-01 00:00:24.576611543,3.574751615524292,0.4231475293636322,1.3816893100738525,-933.01215657,-1036.00270527,-795.42052473,4393.538936280001,102.53839557,-568.0484132700001,-536.73086103,-387.20352918,13.803680981595093,set #2
1970-01-01 00:00:24.586322570,3.583146572113037,0.41644901037216187,1.382210373878479,1483.9633458,884.8942440000001,1221.6230831999999,5034.6918375000005,-250.3544277,-466.7987103,332.418138,336.2803587,14.110429447852761,set #2
1970-01-01 00:00:24.596035743,3.5914227962493896,0.40956079959869385,1.3827494382858276,-237.37028874,-172.9673517,-91.97563167,3465.3050620500003,-441.37161743999997,-540.58323033,-23.43117192,45.69593613,14.417177914110429,set #2
1970-01-01 00:00:24.606019044,3.599520444869995,0.4025507867336273,1.3833608627319336,-288.84539268000003,481.80816059999995,-263.95179252,-3234.19240404,-229.43534328,-417.41534328,-100.13912844,-54.65986188000001,14.723926380368098,set #2
1970-01-01 00:00:24.614871288,3.607386589050293,0.39554616808891296,1.3839915990829468,-92.14413,284.8161576,-524.66375832,2306.89409808,-322.78677912000006,-568.55822088,-292.2662808,-159.18554808000002,15.030674846625768,set #2
1970-01-01 00:00:24.624583745,3.61525559425354,0.3882277011871338,1.3846594095230103,478.16486249999997,968.448624,632.0801838000001,2304.1124320500003,-113.83577985,-436.80288989999997,122.5943121,173.2885323,15.337423312883436,set #2
1970-01-01 00:00:24.634533430,3.6228535175323486,0.3808619976043701,1.3853968381881714,2079.688728,2230.9922661,1041.4916694,1227.7239897,-69.6881367,-333.3729048,493.6487985,568.4641755,15.644171779141104,set #2
1970-01-01 00:00:24.644479061,3.6302871704101562,0.37342947721481323,1.3861706256866455,-407.66435346000003,-557.8836393,-956.55567306,39.71243835,23.52893517,-331.22704017,-245.20779543,-115.00396986,15.950920245398773,set #2
1970-01-01 00:00:24.654549385,3.637606382369995,0.36586278676986694,1.3869808912277222,514.2676227,228.10224645,114.68391285,1284.69365115,16.620643649999998,-330.25543005000003,-7.5302136,27.3049413,16.257668711656443,set #2
1970-01-01 00:00:24.664313341,3.644733190536499,0.3582243323326111,1.3878387212753296,567.82658907,1247.7882924,382.32520833,1124.69283225,-70.45445316000001,-340.31391030000003,344.42945316000004,301.71418173,16.56441717791411,set #2
1970-01-01 00:00:24.673505569,3.651691198348999,0.3504830300807953,1.388717770576477,-318.13565745000005,-283.73671248,-4.001704590000001,1136.88465384,73.87024944,-465.99617415,-42.520387649999996,12.18556404,16.87116564417178,set #2
1970-01-01 00:00:24.683743978,3.6585092544555664,0.3426668345928192,1.3895409107208252,316.61128044,726.78217326,128.69448852,970.48640988,156.35121450000003,-442.64074139999997,102.40398402,168.76853604000001,17.177914110429448,set #2
1970-01-01 00:00:24.694057012,3.6651813983917236,0.33478277921676636,1.3904446363449097,144.48274308,106.23305628,183.64115796000002,1137.43955832,153.71672628000002,-407.05751111999996,14.433572400000001,171.40881888,17.484662576687118,set #2
1970-01-01 00:00:24.703511262,3.671654224395752,0.3268316090106964,1.391330361366272,322.32117528,317.26351176000003,-13.259872080000001,971.67976776,-31.93084596,-349.95298104,133.27103556,319.74109361999996,17.791411042944787,set #2
1970-01-01 00:00:24.713365102,3.6779022216796875,0.3188188672065735,1.3922361135482788,-762.18767508,-452.94338154,168.233247,872.1764883000001,159.88058112000002,-374.80544088,-17.993166359999996,71.5204308,18.098159509202453,set #2
1970-01-01 00:00:24.723637367,3.683969736099243,0.3107888698577881,1.3931273221969604,157.45876848,152.35687233,-56.40857312999999,727.0392448800001,89.45189135999999,-466.39934016,19.24281801,149.91656979,18.404907975460123,set #2
1970-01-01 00:00:24.733361268,3.6898186206817627,0.3027709722518921,1.3940794467926025,-159.5814792,549.77882076,-680.06646396,56.57816892000001,9.004886280000001,-573.5095657200001,-104.51069303999999,-29.049245159999998,18.711656441717793,set #2
1970-01-01 00:00:24.743350769,3.6954967975616455,0.29474979639053345,1.3950077295303345,3.1986290700000026,266.42160792000004,136.33623744,871.3932360900001,-161.09820909,-644.1461991900001,-3.9786290700000038,-43.08003374999999,19.01840490797546,set #2
1970-01-01 00:00:24.753755594,3.700943946838379,0.2867201268672943,1.3958977460861206,98.04545945999999,220.08455664000002,478.95693066,1170.63569532,82.79879946,-498.8304672,156.0026988,166.44174378,19.32515337423313,set #2
1970-01-01 00:00:24.763598466,3.706144332885742,0.2785961627960205,1.396620750427246,95.17326000000003,651.6553992,-756.90688944,85.88214024,-119.44970778,-577.68677226,-132.91174104,-47.09427840000001,19.631901840490798,set #2
1970-01-01 00:00:24.773602033,3.711282968521118,0.27058476209640503,1.3975805044174194,-339.04860288,211.07930688,-30.241454880000003,470.28741786,-40.047254519999996,-555.4517775300001,-122.09879604000001,-159.25643097,19.938650306748468,set #2
1970-01-01 00:00:24.783632303,3.7162203788757324,0.2625806927680969,1.3985079526901245,-937.31764503,-965.1306405,-176.49123063000002,217.69491080999998,-3.5776938599999997,-517.64929203,-228.04289781,-174.73954172999998,20.245398773006137,set #2
1970-01-01 00:00:24.793684745,3.720916271209717,0.2545504570007324,1.399483323097229,-823.5334029,-132.9972735,-688.8130158,-128.62014360000003,161.60283945,-487.8662373,-49.254030150000006,52.46198294999999,20.552147239263803,set #2
1970-01-01 00:00:24.803630853,3.7252583503723145,0.2466794103384018,1.4001933336257935,206.12866521,143.04987996,-338.26688103000004,-12.219592320000032,166.31574726000002,-474.96259668,104.95572672,248.5428972,20.858895705521473,set #2
1970-01-01 00:00:24.813554073,3.729558229446411,0.23893588781356812,1.4011609554290771,-1283.76798693,-825.4399397400001,-55.69852353,435.93810663,-179.15761929,-528.08629224,-144.79873239,-160.30397097,21.165644171779142,set #2
1970-01-01 00:00:24.823927904,3.733729124069214,0.23113206028938293,1.4021075963974,-494.93136576,-279.39805920000003,-779.55405216,-760.97463936,251.45289312,-434.28400704,-303.01177920000003,-218.99228832,21.47239263803681,set #2
1970-01-01 00:00:24.833855176,3.737727403640747,0.22336579859256744,1.4030125141143799,-1414.20960096,-1337.6808276000002,-1340.26040616,-1351.5272472000001,240.50758992,-452.16462720000004,-602.08224336,-456.39148464,21.779141104294478,set #2
1970-01-01 00:00:24.843611503,3.741567611694336,0.21556128561496735,1.4039617776870728,-2390.8451556600003,-1646.6034811200002,-1993.8061150800002,-1603.55355966,174.95298405,-441.05518938,-475.51463738999996,-372.51570018,22.085889570552148,set #2
1970-01-01 00:00:24.853246952,3.745185613632202,0.20791052281856537,1.4048932790756226,1150.26307032,1184.49936072,1405.10010576,1389.12325656,234.2997072,-313.90366488,445.77329160000005,379.13685888000003,22.392638036809817,set #2
1970-01-01 00:00:24.863551164,3.748581647872925,0.2004641443490982,1.405803918838501,108.17723592000002,341.84560644,-166.87792056,-133.46926476,313.55271636000003,-412.710792,131.97997176,116.17230144,22.699386503067487,set #2
1970-01-01 00:00:24.873336578,3.7520089149475098,0.19265815615653992,1.4067506790161133,-57.34251666,357.92054532,-43.40485265999999,-147.54864695999999,95.77676082,-492.76719257999997,86.89450068000001,99.62125758000002,23.006134969325153,set #2
1970-01-01 00:00:24.883300090,3.7553117275238037,0.1847900152206421,1.4076460599899292,784.4918445000001,817.3081137,1081.3615644000001,790.7350035000001,47.6220537,-459.6498582,326.9519526,226.21474200000003,23.312883435582823,set #2
1970-01-01 00:00:24.893481279,3.7584309577941895,0.17702016234397888,1.4085131883621216,-54.257166600000005,10.721963070000001,-45.72950226,-318.17674395,230.90920476,-403.34121789000005,-8.39443332,44.64647148,23.619631901840492,set #2
1970-01-01 00:00:24.903438592,3.7614223957061768,0.16927853226661682,1.409250020980835,-657.279168,-466.24179263999997,-82.48049472000002,-463.50368063999997,140.27294112,-341.05159296,-25.541193599999996,-90.551448,23.926380368098158,set #2
1970-01-01 00:00:24.913312698,3.764289617538452,0.16151878237724304,1.4099130630493164,-1501.14243708,-1664.90444016,-380.708055,-712.2885159,-435.4843194,-555.39027024,-205.09289814000002,-1.9796524799999986,24.233128834355828,set #2
1970-01-01 00:00:24.923530841,3.7670114040374756,0.1537402868270874,1.4104512929916382,-117.64380108,-489.23074239000005,237.82884255,-100.62227447999999,-338.96758779000004,-351.32877351,98.53872795000001,103.17390096,24.539877300613497,set #2
1970-01-01 00:00:24.933762098,3.769564151763916,0.14617179334163666,1.4109199047088623,-1755.59309094,-663.25929462,-741.92101308,-978.09420384,57.932408820000006,-275.1984534,-107.68706363999999,-19.03128396,24.846625766871167,set #2
1970-01-01 00:00:24.943575407,3.77195143699646,0.1387491375207901,1.4113569259643555,255.40653138,29.09708295,-34.54961952000001,-219.31119483,35.6081349,-235.98208334999998,59.114896619999996,72.71694027000001,25.153374233128837,set #2
1970-01-01 00:00:24.953603292,3.77425217628479,0.13138137757778168,1.411707878112793,1237.4860056,1059.7679742,1152.59494584,902.30946936,-255.75989868,-270.09379176,366.918552,395.60439360000004,25.460122699386503,set #2
1970-01-01 00:00:24.963394189,3.7764012813568115,0.12417906522750854,1.4120033979415894,366.8427699299999,308.6468814,-254.79891372000003,-372.03263877000006,33.03227421,-250.56469152,59.913857639999996,122.96938758,25.766871165644172,set #2
1970-01-01 00:00:24.973356986,3.7785415649414062,0.11681831628084183,1.4121946096420288,-492.2200381800001,-190.78424195999997,-498.70995719999996,-512.88720132,389.52997668,-255.92430552000002,138.66967608,-23.2466442,26.073619631901842,set #2
1970-01-01 00:00:24.983794952,3.780677318572998,0.1093677505850792,1.4124879837036133,590.48422992,712.65445368,793.8441794400001,524.64077952,126.08381136,-356.79403032,109.11001919999998,545.8256544000001,26.380368098159508,set #2
1970-01-01 00:00:24.993553424,3.7827343940734863,0.10189315676689148,1.4128613471984863,-2531.46102768,-2647.75356768,-1747.1599392,-1864.4991768,84.59742096,-525.36901872,-396.88059216,-467.50951727999995,26.687116564417177,set #2
1970-01-01 00:00:25.003407979,3.784705400466919,0.09444741904735565,1.4133062362670898,656.3218490400001,905.19432003,1054.13218794,781.64995662,429.77942630999996,-320.1671733,293.25070437,346.2681027,26.993865030674847,set #2
1970-01-01 00:00:25.013541961,3.7865819931030273,0.08706138283014297,1.413705825805664,-329.10985809,-293.91888669,-1048.06003575,-999.3017708699999,466.64188740000003,-337.72776765000003,26.41475889,76.55422359,27.300613496932517,set #2
1970-01-01 00:00:25.023614908,3.78843092918396,0.07958433032035828,1.4141916036605835,-361.14468624,-513.8419884,-1219.68238236,-1344.49812588,52.97219304,-401.73998123999996,-165.11169168,-111.23596692,27.607361963190186,set #2
1970-01-01 00:00:25.033457304,3.7901651859283447,0.07220633327960968,1.4147109985351562,-738.8270416800001,-402.0835104,-302.76243192000004,-746.8851936000001,68.12820456,-356.29830288,23.85398808,-232.2668868,27.914110429447852,set #2
1970-01-01 00:00:25.043608928,3.7917580604553223,0.06505468487739563,1.4152710437774658,530.42781792,297.26507616000004,326.55694656000003,-49.37657088,-39.84473376,-248.51570016000002,346.84485888,345.74241312000004,28.220858895705522,set #2
1970-01-01 00:00:25.053873563,3.793217182159424,0.05808442085981369,1.4159172773361206,15.602189850000002,-241.80008892,684.57777804,401.20242708,62.216208599999995,-294.10931043,302.89326249,153.23411025000001,28.52760736196319,set #2
1970-01-01 00:00:25.063568140,3.794574737548828,0.05126611515879631,1.4166332483291626,-301.16945039999996,58.23924600000001,392.8560012,-26.382860400000006,90.5485932,-390.5041998,-169.6783842,-301.2322794,28.834355828220858,set #2
1970-01-01 00:00:25.073587680,3.7957749366760254,0.044498294591903687,1.4173387289047241,761.5163087999999,508.4013792,2146.2975456,1566.8367936,-174.2191776,-234.6497088,707.3859936,526.6404624,29.141104294478527,set #2
1970-01-01 00:00:25.083429122,3.796895742416382,0.03776274248957634,1.418088436126709,-315.83426316000003,-189.0957003,-990.33926316,-1069.69975398,-49.15862406,-395.25088511999996,-388.89881238,-477.52677024,29.447852760736197,set #2
1970-01-01 00:00:25.093718076,3.7979493141174316,0.031066717579960823,1.418845295906067,61.65765216,-50.01265932,-25.993345559999966,-216.62704128000001,-31.58612808,-343.32383591999996,27.70949376,-17.703209160000007,29.754601226993866,set #2
1970-01-01 00:00:25.103745246,3.79890513420105,0.02445964328944683,1.419641137123108,-339.07727724,-650.96002998,-520.33445646,-859.05981564,131.23052669999998,-362.41600512,-234.75239502,-335.38351938,30.061349693251536,set #2
1970-01-01 00:00:25.113660837,3.799748659133911,0.017894413322210312,1.4204318523406982,-1003.6519755600001,-605.11143927,-665.71685505,-741.1573728000001,162.25486095,-293.0004714,-84.01747614,-136.8381144,30.368098159509202,set #2
1970-01-01 00:00:25.123567605,3.800520420074463,0.01136445440351963,1.421237826347351,-562.2165919500001,-777.3230088,-765.24578325,-874.7209614000001,-20.532768750000002,-286.3764423,-66.63115095,-96.967104,30.67484662576687,set #2
1970-01-01 00:00:25.133726621,3.801178216934204,0.005013170652091503,1.421895980834961,1304.3364827999999,1428.06642186,852.19252794,540.1280976,-72.1626438,-211.49500554,508.81383852000005,357.8629314,30.98159509202454,set #2
1970-01-01 00:00:25.143596673,3.8018229007720947,-0.0011259517632424831,1.4224367141723633,2441.54417559,1602.09942555,1546.78063176,1202.42605392,-13.15779153,-156.66689259,387.24601383000004,307.84979901,31.288343558282207,set #2
1970-01-01 00:00:25.153716350,3.802422046661377,-0.007129994221031666,1.4228792190551758,-84.57545850000002,-645.539232,528.5786805,111.2640165,-243.1220025,-234.94134300000002,207.6312225,74.7727695,31.595092024539877,set #2
1970-01-01 00:00:25.163493181,3.8030049800872803,-0.012997972778975964,1.4236292839050293,320.20558479000005,732.31828995,186.98883294,-74.02222463999999,-103.65849155999999,-233.6720295,407.14224720000004,363.27170295,31.901840490797547,set #2
1970-01-01 00:00:25.173466230,3.8035151958465576,-0.018662288784980774,1.4242581129074097,885.4054871999999,569.253555,608.9394791999999,373.37828579999996,-276.0551742,-254.41522080000001,343.8459726,306.3226374,32.20858895705521,set #2
1970-01-01 00:00:25.183685804,3.8039743900299072,-0.024316776543855667,1.4248112440109253,1093.45299024,1306.52654808,760.78132728,483.99328068,-180.96406692,-259.11021864,242.51772636,144.834534,32.515337423312886,set #2
1970-01-01 00:00:25.193784738,3.8043646812438965,-0.029954060912132263,1.425349473953247,-430.19176512,-515.21353728,-133.47683544,-333.45222222,236.23472574000002,-204.77443038,-57.47836146,-78.31893108,32.82208588957055,set #2
1970-01-01 00:00:25.204027200,3.804680109024048,-0.035448700189590454,1.4257972240447998,-203.142888,-265.284864,-31.186896,-365.59348800000004,222.25507199999998,-201.31019999999998,-61.85868,-115.917048,33.12883435582822,set #2
1970-01-01 00:00:25.213621641,3.804947853088379,-0.040793631225824356,1.426208257675171,-46.99213077,-399.18693282,-76.68600225,-285.05108268,-30.32043924,-223.5281997,-87.0863994,-190.55859809999998,33.43558282208589,set #2
1970-01-01 00:00:25.223767305,3.805170774459839,-0.0461028553545475,1.4265823364257812,-279.5507988,-574.06147695,-774.95613975,-968.1210084,298.8433929,-166.994958,-73.83350325,-101.95399695,33.74233128834356,set #2
1970-01-01 00:00:25.234022165,3.8053438663482666,-0.0512172169983387,1.4268525838851929,133.7812437,-166.4837655,-404.93922885,-607.79109495,59.35378215,-177.79195395000002,-171.7158027,-281.19342615,34.04907975460123,set #2
1970-01-01 00:00:25.243616844,3.80544376373291,-0.05626040697097778,1.427115559577942,-64.1166318,-221.57096988,28.58145888,-202.18610568,-200.09959632,-180.67593648000002,-10.42703844,-103.832313,34.355828220858896,set #2
1970-01-01 00:00:25.253968740,3.8055145740509033,-0.06112642586231232,1.4273467063903809,944.5843679999999,810.5094582,895.3333974,660.8210466,-371.4371778,-142.3740084,437.17961820000005,254.4043476,34.66257668711656,set #2
1970-01-01 00:00:25.263485218,3.8055577278137207,-0.0659560039639473,1.4276201725006104,-395.50912986000003,-69.34043610000002,-748.74291414,-765.7465413,-131.47006392,-134.09658522,156.81891810000002,126.13747536,34.969325153374236,set #2
1970-01-01 00:00:25.273895288,3.8055579662323,-0.07076311111450195,1.427785873413086,199.61465784,171.07932192,27.924814320000003,-197.04903504,189.54715104000002,-92.81183184000001,139.74762048,114.71002920000001,35.2760736196319,set #2
1970-01-01 00:00:25.283601785,3.8055307865142822,-0.07521678507328033,1.4279645681381226,229.25824545,225.97382925,-220.70843925,-378.36324045,81.67922685,-123.4698075,96.29800829999999,77.373231,35.582822085889575,set #2
1970-01-01 00:00:25.293213153,3.805469036102295,-0.07950856536626816,1.4281736612319946,191.2749891,-61.14413447999999,196.25986146,43.45371420000001,-144.75857799,-156.97590987,109.17271638000001,-69.62191002,35.88957055214724,set #2
1970-01-01 00:00:25.320064092,3.8054111003875732,-0.08366944640874863,1.4284011125564575,-50.999936520000006,-795.59903592,-965.3108758799999,-1025.95171224,320.20522248000003,-134.98502471999998,-90.79517304,-151.37031312000002,36.19631901840491,set #2
1970-01-01 00:00:25.323277498,3.805283308029175,-0.09174363315105438,1.4286359548568726,-526.89827814,-1621.67577312,-527.83053726,-666.45884292,75.72465732,-158.95528661999998,-58.78601586,-173.64380592,36.50306748466258,set #2
1970-01-01 00:00:25.334001089,3.8052046298980713,-0.09574152529239655,1.4289906024932861,533.8351929300001,989.51542482,-237.68254848,-341.72457540000005,64.95915036000001,-118.56552123,12.73955592,-83.18472981000001,36.809815950920246,set #2
1970-01-01 00:00:25.343366170,3.805145025253296,-0.09965198487043381,1.4292441606521606,-254.11029150000002,-84.0796554,8.169977400000008,-243.00455010000002,554.608197,-73.17859380000002,80.94544379999999,-26.087817600000008,37.11656441717791,set #2
1970-01-01 00:00:25.353662038,3.8050715923309326,-0.10349296033382416,1.4293888807296753,-537.5518863,-401.8535079,149.7925338,-81.16690764,87.69042906,-176.29803828000001,28.68495162,-112.46072292,37.423312883435585,set #2
1970-01-01 00:00:25.363800788,3.804964065551758,-0.10736233741044998,1.4294651746749878,789.55102356,473.15672352,545.8606139999999,341.96062368,-139.40262492,-177.59923896,187.48839564,5.36233152,37.73006134969325,set #2
1970-01-01 00:00:25.373449827,3.8048675060272217,-0.11115838587284088,1.429461121559143,-3.61458669000001,109.69323378,-702.1207818299999,-738.98860113,-112.62633134999999,-218.36693736,-99.04515543,-91.8645663,38.03680981595092,set #2
1970-01-01 00:00:25.383741641,3.804762840270996,-0.11497536301612854,1.429474949836731,270.86306208,-46.90865439000001,466.72623699,275.30555481,-113.73535835999999,-188.18743944,149.14651752,-16.798482480000004,38.34355828220859,set #2
1970-01-01 00:00:25.393957401,3.8046517372131348,-0.11859563738107681,1.429352879524231,111.58480281,152.40172896,345.63783735000004,221.30654208,-296.38338639000006,-195.59104266000003,119.54221227,-89.5704498,38.65030674846626,set #2
1970-01-01 00:00:25.403556371,3.804497241973877,-0.12223174422979355,1.4291088581085205,-792.93254859,-446.51303775,189.61417098,-83.03705943,-138.20061801,-217.84660755000002,-145.29424572000002,-285.87858663000003,38.95705521472393,set #2
1970-01-01 00:00:25.413537527,3.8043625354766846,-0.12556535005569458,1.4287538528442383,419.37929748,-127.58359419,310.56361206,142.22438685000003,-174.25250544000002,-157.76015931,120.38859885000001,-22.619157599999998,39.263803680981596,set #2
1970-01-01 00:00:25.423574234,3.804227113723755,-0.12889550626277924,1.4283521175384521,269.01531462,-37.52267844,312.75321714,172.40775162,-490.60897314,-163.22602686000002,211.48341708,46.569635579999996,39.57055214723926,set #2
1970-01-01 00:00:25.433724428,3.804081678390503,-0.13212718069553375,1.4279156923294067,370.08677316,343.5020784,75.21108036000001,-33.26377236,-521.9066080800001,-166.78365756,94.36989588,-25.263654000000002,39.877300613496935,set #2
1970-01-01 00:00:25.443768287,3.8039138317108154,-0.1351102739572525,1.4274131059646606,-197.49917420999998,-132.9114735,-669.5379366000001,-792.24962856,-170.20683576,-150.54984243,-10.931478089999999,-72.0759858,40.1840490797546,set #2
1970-01-01 00:00:25.453339839,3.8037264347076416,-0.13790151476860046,1.4269747734069824,483.14353932,503.76606267,613.42975083,416.26638807,-1.5951557699999999,-69.05126514,303.91413468,238.51301838,40.490797546012274,set #2
1970-01-01 00:00:25.463470483,3.803520441055298,-0.14068163931369781,1.426560640335083,710.41604166,600.5340658199999,863.88243825,724.1602290000001,41.48372124,-112.45883727,207.50302209,87.30662694,40.79754601226994,set #2
1970-01-01 00:00:25.474252487,3.8032915592193604,-0.14352110028266907,1.4261614084243774,-314.6356083,-506.03886567,-409.07148945,-619.39159854,-14.243222370000002,-188.78956083,-301.12258878,-342.86136222,41.104294478527606,set #2
1970-01-01 00:00:25.483917976,3.803037405014038,-0.1461750566959381,1.4257935285568237,50.106869279999955,-124.90265111999997,-448.70781072,-553.1699596799999,85.33142591999999,-117.63708528000001,6.0027333599999935,6.901861199999999,41.41104294478528,set #2
1970-01-01 00:00:25.493710065,3.802777051925659,-0.14863185584545135,1.4254199266433716,1519.8616485,1273.6964448,1130.3768599500002,929.92965,-219.1189689,-51.936984450000004,479.34936855,324.95672625000003,41.717791411042946,set #2
1970-01-01 00:00:25.504655624,3.802495002746582,-0.15128809213638306,1.4250476360321045,-297.29147448000003,-377.11858392,-414.51711911999996,-371.76284183999996,80.55422856,-145.40810544,-272.07938472,-274.32414048000004,42.02453987730061,set #2
1970-01-01 00:00:25.513441587,3.8022239208221436,-0.15381355583667755,1.42474365234375,-15.174318509999999,-233.79869877000002,135.54334404,-18.66425925,-114.35754486,-118.74869877,37.95207078,-126.23334321,42.331288343558285,set #2
1970-01-01 00:00:25.523486877,3.8019542694091797,-0.15608051419258118,1.4244760274887085,186.43075308000002,-160.28695059,56.53815921,-96.07518921,-253.51690533000001,-232.02952812,-18.92420166,-20.10955557,42.63803680981595,set #2
1970-01-01 00:00:25.533399129,3.8016717433929443,-0.1583721935749054,1.4242414236068726,868.1300846400001,287.58281409,1066.60974147,786.48306087,-129.60651132,-159.67924791000002,469.41508107000004,304.98876759,42.94478527607362,set #2
1970-01-01 00:00:25.543939138,3.801419973373413,-0.16042795777320862,1.4240437746047974,-704.9416888800001,-407.81574912,-128.71271634000001,-247.1588067,-138.85748759999998,-267.6502764,-55.075062900000006,-82.485,43.25153374233129,set #2
1970-01-01 00:00:25.553744340,3.801177978515625,-0.16239599883556366,1.4238057136535645,340.5610572,-136.6134432,985.8049812,896.8500762,-386.4859206,-272.8587264,228.644793,64.66228860000001,43.558282208588956,set #2
1970-01-01 00:00:25.563469434,3.8009519577026367,-0.16416244208812714,1.4233866930007935,-180.12054684,-6.934787340000003,819.99722454,711.90762084,-189.6371334,-243.15734742,154.07560896,11.77917702,43.86503067484663,set #2
1970-01-01 00:00:25.573674703,3.800691604614258,-0.16592079401016235,1.4232466220855713,-558.63725385,-615.0999063300001,-854.55895356,-923.60053656,-365.29386777,-314.31874227000003,-325.59276828,-265.77246423,44.171779141104295,set #2
1970-01-01 00:00:25.584169889,3.800403594970703,-0.1677471101284027,1.4231692552566528,-27.92535369,-130.51797447,232.21113981000002,54.14702552999999,-133.42307706,-185.31786234,210.52403853,9.92719611,44.47852760736196,set #2
1970-01-01 00:00:25.593581701,3.8001291751861572,-0.16942036151885986,1.423000693321228,408.90955482,194.04730254,491.23846550999997,298.60259091,-268.49841525,-219.33037152,152.71807083,25.701704730000003,44.785276073619634,set #2
1970-01-01 00:00:25.604305530,3.799887180328369,-0.17082321643829346,1.4226839542388916,-304.2071565,-256.003527,-592.9440933000001,-680.267796,-160.1492763,-208.9763754,-57.4789761,-108.82706250000001,45.0920245398773,set #2
1970-01-01 00:00:25.613328958,3.799638509750366,-0.17230276763439178,1.4225356578826904,-1045.53400458,-1004.928405,-437.46139164,-755.29792494,12.366906239999999,-179.07158724,-161.69642580000001,-256.3738086,45.398773006134974,set #2
1970-01-01 00:00:25.623828197,3.799384593963623,-0.17374151945114136,1.4224817752838135,421.43324925,-418.14908069999996,490.9254207,420.09414174000005,-301.91228847,-154.39372104,274.061268,121.0112046,45.70552147239264,set #2
1970-01-01 00:00:25.634800935,3.799147605895996,-0.17510215938091278,1.4224082231521606,-51.04179989999997,249.66863805000003,-166.84521554999998,-385.5783126,110.0631051,-87.5152707,-48.77887755,-149.49945075,46.012269938650306,set #2
1970-01-01 00:00:25.644091154,3.798849105834961,-0.17653660476207733,1.4224894046783447,-906.54264246,-1298.5852892999999,-1012.37764992,-1064.17637742,71.16659472,-143.60204586,-272.86962378000004,-316.13458032,46.31901840490798,set #2
1970-01-01 00:00:25.653498674,3.798577308654785,-0.17767533659934998,1.422400951385498,428.36841918000005,699.4391430000001,560.53808226,365.07823014,-66.3853281,-61.81189716000001,290.52207444,94.89363468,46.625766871165645,set #2
1970-01-01 00:00:25.664009595,3.798269271850586,-0.17886805534362793,1.4224531650543213,419.63497485,135.12540600000003,685.4091835500001,440.44262534999996,-32.453151899999995,-42.153265049999995,321.24523665,299.08342035000004,46.93251533742331,set #2
1970-01-01 00:00:25.673420930,3.797924518585205,-0.17996518313884735,1.4225128889083862,-612.1006515,-962.6888426999999,-1166.2544595,-1104.03579,-59.14394850000001,-162.1765275,-24.407771700000012,-160.40349,47.239263803680984,set #2
1970-01-01 00:00:25.683368469,3.7976560592651367,-0.18081051111221313,1.4223707914352417,-201.50916084,-267.25294947,-946.1590706100001,-1133.66472141,-324.53591586000005,-227.47294947,-201.14794947000001,-179.61786375,47.54601226993865,set #2
1970-01-01 00:00:25.694005752,3.7973556518554688,-0.1814732849597931,1.4221984148025513,-536.14938312,-580.6746036,-485.98021367999996,-459.63070296,306.2552688,-138.75716400000002,21.508490639999998,-210.7725672,47.852760736196316,set #2
1970-01-01 00:00:25.705080295,3.797083616256714,-0.18200309574604034,1.4219340085983276,-462.15107055000004,-877.82035965,-895.3601124,-939.67232775,97.91556255,-227.7515331,-0.1477846499999993,-197.211378,48.15950920245399,set #2
1970-01-01 00:00:25.713630224,3.796682834625244,-0.18243569135665894,1.4218138456344604,-512.05800048,-11.19101568,-392.26756608,-459.1318992,159.75709152,-241.07267808,2.05418304,-228.8659776,48.466257668711656,set #2
1970-01-01 00:00:25.724283004,3.7963905334472656,-0.1827465146780014,1.421462893486023,-193.6442664,-264.68792688,-895.97533428,-1021.36111428,-154.5586926,-358.92933024,-229.47367872,-172.77245856,48.77300613496933,set #2
1970-01-01 00:00:25.734037900,3.79616379737854,-0.1829192042350769,1.4210078716278076,-147.892017,-520.6121310000001,498.878718,219.921975,-273.62244,-291.72569400000003,46.176117000000005,-33.780668999999996,49.079754601226995,set #2
1970-01-01 00:00:25.743720079,3.796020746231079,-0.1828284114599228,1.4204039573669434,-689.4615405600001,-848.61499437,-2918.08727106,-2464.6424868,-126.53071158,-403.28873013,-917.13968775,-733.04523279,49.38650306748466,set #2
1970-01-01 00:00:25.754503036,3.795940399169922,-0.1827576458454132,1.4196962118148804,138.1132818,348.62949732,418.02389928,218.69045640000002,-44.17929828,-271.05,-332.93849472,-148.0812294,49.693251533742334,set #2
1970-01-01 00:00:25.763625885,3.7959115505218506,-0.18278051912784576,1.4189586639404297,-2597.24799165,-2635.7264349,-725.0244768,-834.4765845000001,-42.8848134,-217.0821081,-550.3319211,-639.9834324,50.0,set #2
1970-01-01 00:00:25.773650671,3.7958898544311523,-0.18266640603542328,1.418206810951233,1448.8725993300002,1127.47596273,1304.36182032,847.44161073,161.6445324,24.54866817,337.33350534000004,190.98691716,50.30674846625767,set #2
1970-01-01 00:00:25.783799196,3.795907497406006,-0.18245524168014526,1.4173698425292969,919.1393156400001,704.0816374799999,850.5526972800001,504.86532408,-55.9132626,116.0971188,509.30910264,289.7986026,50.61349693251534,set #2
1970-01-01 00:00:25.796352888,3.7959468364715576,-0.1821945160627365,1.4165005683898926,281.09041272,187.04303904,-270.62825088,-598.37996088,-139.91321448,107.7301056,114.40693992,53.664078,50.920245398773005,set #2
1970-01-01 00:00:25.803923393,3.796038866043091,-0.18168841302394867,1.4155195951461792,-2534.81746986,-2022.84660474,-946.0012629600001,-1314.2354390100002,522.7629498,93.01339749,-432.28014063,-446.20383873000003,51.22699386503068,set #2
1970-01-01 00:00:25.813954616,3.7961862087249756,-0.18097013235092163,1.4145244359970093,139.67248464,-309.2970816,203.57334192,-65.21199672,109.01816016000001,92.05800239999999,55.34217936,32.33157408,51.533742331288344,set #2
1970-01-01 00:00:25.823661352,3.796431064605713,-0.17983755469322205,1.413360834121704,212.28786384,167.02174008,-734.85869496,-920.8675632000001,105.15101688000001,65.74236239999999,-211.47176856,-138.79149336,51.84049079754601,set #2
1970-01-01 00:00:25.833772207,3.796692371368408,-0.17872463166713715,1.412420630455017,98.44856112,-7.800189540000019,-449.17572648,-604.99135203,-37.86634059,17.21919459,-215.25045009,-180.38955519,52.147239263803684,set #2
1970-01-01 00:00:25.844023967,3.796957015991211,-0.1775408536195755,1.4115644693374634,613.85900199,337.31871381,1222.57422495,610.598157,-388.25853534,8.11393323,293.30352051,87.9482175,52.45398773006135,set #2
1970-01-01 00:00:25.853879476,3.797199249267578,-0.17622308433055878,1.4107226133346558,-849.7600987200001,-703.6066580400001,-158.99567580000001,-441.96740952,-195.12653628,-85.5053706,-139.57043724,-40.716166920000006,52.760736196319016,set #2
1970-01-01 00:00:25.863813425,3.797518491744995,-0.17449335753917694,1.4096907377243042,352.70817075,-32.765382,-337.9363065,-494.8552245000001,-41.27877975,-178.7214195,-313.52022975,-370.71108749999996,53.06748466257669,set #2
1970-01-01 00:00:25.873892093,3.797879934310913,-0.17272792756557465,1.408777117729187,-138.28240764000003,-247.87675575,-100.87994787,-364.57418673000006,-60.31068497999999,-287.48296863,-193.82329707000002,-163.78078041,53.374233128834355,set #2
1970-01-01 00:00:25.883931184,3.7982215881347656,-0.17087304592132568,1.408048152923584,-883.46948976,-915.2306654399999,-1055.39720832,-1088.5909569599999,-187.07705951999998,-392.06448528,-258.77566416,-182.03875248000003,53.68098159509203,set #2
1970-01-01 00:00:25.893541360,3.7986347675323486,-0.16859103739261627,1.4071682691574097,459.6355608,303.3810312,165.1955448,-54.442190399999994,-290.893044,-448.627608,40.4517984,1.6940975999999992,53.987730061349694,set #2
1970-01-01 00:00:25.904303098,3.7990939617156982,-0.16622325778007507,1.4064371585845947,1118.7535086,444.37606980000004,1797.69210426,1465.5260139,-233.6324796,-413.89356996,430.15269024,168.74656422,54.29447852760736,set #2
1970-01-01 00:00:25.913746143,3.7995920181274414,-0.16355964541435242,1.4056463241577148,-679.60676628,-733.37397276,745.0867515,396.67535388,-233.20796616,-392.05529609999996,51.76195439999999,118.21593576000001,54.60122699386503,set #2
1970-01-01 00:00:25.923720623,3.8000385761260986,-0.1609978824853897,1.4052073955535889,1100.9364834,697.94676081,-370.80501393,-258.66463856999997,-278.82524202,-352.82604708,120.41050710000002,72.7182417,54.9079754601227,set #2
1970-01-01 00:00:25.933870817,3.8005592823028564,-0.15798906981945038,1.4045181274414062,1055.9295864,686.51869377,937.51849776,546.42815526,69.45580161000001,-185.36410737,45.82153212,170.55551292,55.21472392638037,set #2
1970-01-01 00:00:25.943518901,3.8011457920074463,-0.15464916825294495,1.4037984609603882,-592.7360197200001,-754.4715703200001,-1260.00884022,-1216.40255412,322.83291066,-12.35932308,-26.46368907,39.444334409999996,55.52147239263804,set #2
1970-01-01 00:00:25.954263235,3.8017547130584717,-0.1511545181274414,1.4029943943023682,891.6730212,662.1384783000001,1660.24424475,1243.68870405,330.008796,216.40581104999998,572.7757191000001,508.96428375000005,55.828220858895705,set #2
1970-01-01 00:00:25.963670278,3.802377939224243,-0.1473289132118225,1.4023518562316895,758.90643894,390.97579872,183.43784082,-51.49371084,817.1864040600001,781.36436196,58.00205736,-31.820555520000003,56.13496932515338,set #2
1970-01-01 00:00:25.973947072,3.802985429763794,-0.1432841569185257,1.401772141456604,1663.65871776,1044.45115008,1158.54634272,758.84597568,1322.67049824,1075.03149312,428.1646512,364.35925344000003,56.441717791411044,set #2
1970-01-01 00:00:25.983733678,3.8036022186279297,-0.13890698552131653,1.4013679027557373,1091.70608508,631.8141141,1000.95366384,844.0195069800001,787.35970872,671.73277392,484.24272312,275.10225678,56.74846625766871,set #2
1970-01-01 00:00:25.993543649,3.804202079772949,-0.1343110352754593,1.4009329080581665,-465.04086564,-855.68288481,32.228922960000006,-37.15414404,493.9939914,248.71326675,-258.16442028,-274.69771641,57.05521472392638,set #2
1970-01-01 00:00:26.003613496,3.804791212081909,-0.1295807659626007,1.4004613161087036,-1053.90550512,-1027.31143008,-571.68856992,-544.20669888,434.74364543999997,82.51854312,41.73843024,-21.64614504,57.36196319018405,set #2
1970-01-01 00:00:26.013674283,3.8053629398345947,-0.12437741458415985,1.399741768836975,-460.42781460000003,-438.76972581,-1110.26681415,-877.51719939,124.58717778,-112.5205926,-220.40205174,-106.80284433,57.668711656441715,set #2
1970-01-01 00:00:26.023582483,3.805903196334839,-0.11910784244537354,1.39967679977417,-244.24280634,-301.60497471,206.48841954000002,-17.55331578,199.28635233,-86.65262775000001,-135.51306132000002,-229.86288273,57.97546012269939,set #2
1970-01-01 00:00:26.033653999,3.806424617767334,-0.11361825466156006,1.3996046781539917,1135.09112028,474.57652476000004,1021.9086852,789.63878994,100.76046240000001,-105.01684791,324.9245376,271.28713872000003,58.282208588957054,set #2
1970-01-01 00:00:26.043896699,3.8068926334381104,-0.10789597779512405,1.3995977640151978,1456.61115249,823.31286804,769.86734019,680.23769502,-75.0878739,-165.97574487,518.3963343,460.84058943,58.58895705521473,set #2
1970-01-01 00:00:26.053679491,3.8073060512542725,-0.10198646038770676,1.3996331691741943,190.42578672000002,176.96109366000002,24.90822243000001,-209.76616518,-69.22494189,-269.28495828,-89.84081652,-5.17555428,58.895705521472394,set #2
1970-01-01 00:00:26.063850904,3.8076529502868652,-0.09594959765672684,1.3996213674545288,-317.53354151999997,-603.2337667200001,346.35719352,6.680054160000012,-63.69682176,-206.15904504,84.55129488,-67.3777884,59.20245398773006,set #2
1970-01-01 00:00:26.073661352,3.80792498588562,-0.08980871737003326,1.3997834920883179,340.11359304,142.13959344,-197.37081312,-183.77777496,189.53378184,-168.7324548,-46.56096744,-24.084730800000003,59.50920245398773,set #2
1970-01-01 00:00:26.084815765,3.8081295490264893,-0.08352775126695633,1.3999369144439697,-1384.0155108,-1270.25391285,-2260.3332726,-1764.1504354499998,311.92778565000003,-238.6050654,-786.17477055,-816.32190315,59.8159509202454,set #2
1970-01-01 00:00:26.093493486,3.8082547187805176,-0.07712934166193008,1.3999875783920288,2221.94514282,1623.2351811,1767.81038772,707.51294094,-6.179644380000001,-41.660870939999995,638.4029706600002,441.84751494,60.12269938650307,set #2
1970-01-01 00:00:26.103619838,3.8083176612854004,-0.07016953825950623,1.4000122547149658,668.40759336,542.6455397999999,-497.48917140000003,-1579.17359106,384.18568031999996,9.37926444,238.41159420000002,191.89374984,60.42944785276074,set #2
1970-01-01 00:00:26.113549018,3.8083088397979736,-0.06301181018352509,1.400038719177246,-156.03070236000002,-173.94012792,-763.5282766800001,-1455.51440424,321.83419164000003,14.19296814,-56.86353192000001,-20.94915966,60.736196319018404,set #2
1970-01-01 00:00:26.123607421,3.8080501556396484,-0.05554433539509773,1.3994852304458618,-204.90891837,-77.55721311,-1145.76855705,-1462.79818152,127.21691073,-5.046329729999999,3.1750211999999998,-40.1500827,61.04294478527608,set #2
