,x,y,z,emg_1,emg_2,emg_3,emg_4,emg_5,emg_6,emg_7,emg_8,percentage,Source
1970-01-01 00:00:14.039738166,3.427785873413086,0.5968093872070312,1.4744737148284912,-151.7030034,-44.616918840000004,499.73305200000004,457.79422728,180.40443018,-150.35596914,-22.48386036,-133.81847076,0.0,set #1
1970-01-01 00:00:14.050653684,3.4323668479919434,0.5949268937110901,1.4750255346298218,-319.71336384,-190.55645855999998,3.8696985600000104,140.12008608000002,-20.55216228,-210.32740716,-267.61551804,-548.36709096,0.13679890560875513,set #1
1970-01-01 00:00:14.060009944,3.4373388290405273,0.5928568243980408,1.4751555919647217,-38.72110944,-439.69977168,271.99627104,242.3945628,89.0341608,-124.72074264,66.20534232,-89.63565312,0.27359781121751026,set #1
1970-01-01 00:00:14.069813240,3.442321300506592,0.5907448530197144,1.4753315448760986,683.2621224000001,741.1735656,1313.2064088000002,1138.58589,326.9826768,-30.621926400000003,431.3662392,229.620378,0.4103967168262654,set #1
1970-01-01 00:00:14.079954851,3.4475619792938232,0.5885041952133179,1.475546956062317,-534.5879334900001,-324.11660853,776.45609457,591.24091806,4.971473129999998,-167.14628385,-142.83516234,-283.77520275000006,0.5471956224350205,set #1
1970-01-01 00:00:14.089911687,3.4528286457061768,0.5861438512802124,1.475835919380188,-76.39307208,-150.21959628000002,-239.55579531,-207.12341168999998,-140.11126545,-166.73665242,-45.97390551,-157.67446344,0.6839945280437756,set #1
1970-01-01 00:00:14.100876558,3.4583709239959717,0.5836449861526489,1.4759923219680786,-641.55598416,-656.6905449000001,-1024.58711862,-845.22207978,-73.4137599,-186.99770855999998,-334.6905783,-417.0291879,0.8207934336525308,set #1
1970-01-01 00:00:14.110200393,3.464043140411377,0.5810163617134094,1.4762303829193115,-269.67266625,-422.64309555,162.73694190000003,196.2125685,-20.27119419,-144.30267501,122.85847314,133.51988052000002,0.957592339261286,set #1
1970-01-01 00:00:14.120683420,3.469780445098877,0.5782830715179443,1.4765222072601318,149.69105580000002,111.8610558,485.4581862,457.648776,173.29777140000002,-86.9269674,147.0254916,120.9005616,1.094391244870041,set #1
1970-01-01 00:00:14.130363691,3.475633382797241,0.5753530859947205,1.4768797159194946,69.64951812000001,-1.5056675400000001,232.57146354,171.48025596,263.47114287,-36.62424714,123.82781268,-140.88928932,1.231190150478796,set #1
1970-01-01 00:00:14.139961231,3.4814486503601074,0.5723367929458618,1.4773569107055664,-1398.85673499,-984.17450664,-801.93165624,-817.2980002200001,401.68488009,-158.72688234,-367.79244567,-317.23943667000003,1.3679890560875512,set #1
1970-01-01 00:00:14.149870384,3.4874954223632812,0.5691354274749756,1.4778293371200562,-38.3565312,-104.96112432000001,-194.91315792,-232.63471296,-7.093157760000004,-168.45133968,-236.3542584,-348.9847608,1.5047879616963065,set #1
1970-01-01 00:00:14.160593021,3.4935061931610107,0.5660004615783691,1.478334903717041,-715.01841333,-737.52051867,-967.94353266,-860.1945846,-7.636842719999999,-125.82939837,-270.96830787,-418.12545177,1.6415868673050615,set #1
1970-01-01 00:00:14.169646013,3.4998180866241455,0.5624019503593445,1.4787883758544922,109.19981787,145.91466708000002,547.57916967,326.57356407,141.26092773,70.00647459000001,189.98360667,-76.87116372,1.7783857729138166,set #1
1970-01-01 00:00:14.179378021,3.5061211585998535,0.5586438775062561,1.4792503118515015,-466.12843719,-197.52878106,-662.80527066,-571.8919674,752.86682055,216.89993325,-250.98900801000002,-466.82528724,1.915184678522572,set #1
1970-01-01 00:00:14.189887989,3.512549877166748,0.5547516942024231,1.4796884059906006,-12.799438080000009,-450.18521301,-447.65629155,-366.51918732,472.9523565,172.84658157,-211.56051813,-397.24473867,2.0519835841313268,set #1
1970-01-01 00:00:14.199824560,3.518954038619995,0.5507058501243591,1.4801560640335083,-1347.1283904,-930.5776272,-1796.650596,-1380.8630784,342.372108,92.994408,-203.8845744,-200.8673784,2.188782489740082,set #1
1970-01-01 00:00:14.209508169,3.52536678314209,0.5464714169502258,1.4806426763534546,587.18334246,540.68358903,725.70672993,730.59008022,-215.44127397,-49.754332680000005,303.40989432,-0.64036791,2.3255813953488373,set #1
1970-01-01 00:00:14.219967115,3.5317294597625732,0.5421408414840698,1.4811190366744995,-45.3732084,24.247037100000004,130.38557804999994,-24.895322399999998,57.1909689,95.51705865000001,138.46893645,49.846537649999995,2.462380300957592,set #1
1970-01-01 00:00:14.229630697,3.538201332092285,0.5376376509666443,1.481654405593872,-725.14198497,-442.01218230000006,-734.61306906,-541.6477591199999,189.5509863,101.86057752,-385.12185894,-456.67614057,2.5991792065663475,set #1
1970-01-01 00:00:14.239662158,3.544614791870117,0.5330362319946289,1.4821900129318237,-57.10760327999999,-47.10475692,-156.78293279999997,-171.66119958000002,219.19660620000002,144.2685894,-26.097328139999995,-153.74865635999998,2.7359781121751023,set #1
1970-01-01 00:00:14.250370491,3.550940752029419,0.5283203721046448,1.482742190361023,-10.940911020000001,-53.03472798,292.81945446,394.1719782,392.53177665,116.47957659000001,162.41653388999998,-95.25134697,2.8727770177838576,set #1
1970-01-01 00:00:14.259746778,3.5572540760040283,0.5234221816062927,1.4832510948181152,-460.88191578000004,-613.78527756,-538.94584224,-242.50088850000003,222.96867762,28.62553278,25.97538762,-156.09104004,3.009575923392613,set #1
1970-01-01 00:00:14.269459474,3.563546895980835,0.5184394121170044,1.4837617874145508,161.48816034,250.07604258,177.01291139999998,247.95941274,-98.79790986,98.09117760000001,350.46922248,236.06147525999998,3.146374829001368,set #1
1970-01-01 00:00:14.280158031,3.5698559284210205,0.513317883014679,1.4841957092285156,688.7773659000001,329.93391522,-9.906597870000002,-146.7026418,-370.84048443,-62.86173582,-114.18413487,-159.85859526,3.283173734610123,set #1
1970-01-01 00:00:14.289606082,3.576133966445923,0.5080258846282959,1.4846153259277344,-172.55930561999998,-0.3166581600000029,254.81780532,192.35712912000002,-239.53419828,-3.4611836999999994,-26.93814552,-109.46479284000002,3.4199726402188784,set #1
1970-01-01 00:00:14.299624670,3.5825204849243164,0.5025502443313599,1.4850186109542847,625.7148456000001,430.7830293,826.1141538,638.0099115,-479.45792309999996,-1.2492245999999998,195.0815685,147.3557046,3.556771545827633,set #1
1970-01-01 00:00:14.310935485,3.588684558868408,0.49726027250289917,1.4856122732162476,-79.43457795,-21.689417100000014,-23.261854200000002,-159.1203003,85.4351745,280.05147495,-8.56765845000001,-252.7581303,3.6935704514363885,set #1
1970-01-01 00:00:14.319752443,3.595088481903076,0.4917367696762085,1.4861104488372803,-272.74338858,-162.43118931,-234.63327458999998,-409.17415422,256.50947907,213.70793145,-54.76070067,-207.02013033,3.830369357045144,set #1
1970-01-01 00:00:14.329668033,3.60149884223938,0.4860686659812927,1.4864131212234497,235.83645813000004,137.63317113,697.63005936,440.3515233,400.55877498,52.42142919,293.93052273,-128.87581668,3.9671682626538987,set #1
1970-01-01 00:00:14.339811075,3.607909679412842,0.48023301362991333,1.486667513847351,-491.01574274999996,-744.6179910000001,42.21460425000001,108.82141725,86.465028,-241.416357,-118.907451,-398.92935225,4.1039671682626535,set #1
1970-01-01 00:00:14.349806058,3.6142237186431885,0.4743114411830902,1.4867950677871704,-306.64329384,-164.67607182,314.66516952,44.36958317999999,388.47124134,-271.37035302,41.547709319999996,-22.531653300000002,4.240766073871409,set #1
1970-01-01 00:00:14.360217082,3.6204488277435303,0.4682721197605133,1.4869422912597656,379.62556632,195.80299986,312.8383128,416.08631454,258.0037317,-372.60891564,162.11927004,47.90270706,4.377564979480164,set #1
1970-01-01 00:00:14.369904506,3.6265177726745605,0.4621231257915497,1.487060308456421,-545.56880976,-576.25458618,-2131.53645744,-1588.1631129,-175.9690803,-624.8415069,-728.53467102,-606.56132472,4.514363885088919,set #1
1970-01-01 00:00:14.379535186,3.6324667930603027,0.4559169411659241,1.487083911895752,-237.3582666,-545.1261270000001,-637.67464644,-562.438032,-471.43928832,-656.9080635,-344.2653747,-303.03506921999997,4.651162790697675,set #1
1970-01-01 00:00:14.389988172,3.6383934020996094,0.44968554377555847,1.4870423078536987,799.1397913200001,661.39514376,372.5317986,339.73322136,-307.78967700000004,-693.01783512,8.851337040000004,23.67972204,4.7879616963064295,set #1
1970-01-01 00:00:14.399787176,3.644294023513794,0.44334903359413147,1.4871301651000977,752.76118008,510.94069728,648.9022675200001,672.28816824,-362.92905168000004,-795.48587352,407.11477248,237.17187312,4.924760601915184,set #1
1970-01-01 00:00:14.409626949,3.6501901149749756,0.4369092285633087,1.4871797561645508,16.33735506,-101.54684358,-867.31135296,-898.1574264,-764.53160199,-1111.66069209,-587.2522784700001,-466.96768287000003,5.06155950752394,set #1
1970-01-01 00:00:14.420317161,3.6560423374176025,0.43044334650039673,1.4870980978012085,-573.54465207,-668.22194673,-354.80572413,-420.35745141,-245.49467085,-1028.28441066,20.589768030000002,-107.70709404,5.198358413132695,set #1
1970-01-01 00:00:14.429478872,3.6619365215301514,0.42388349771499634,1.4870541095733643,-20.11499568,-149.68566912,-218.10867312,-254.40346152,-339.41808264,-1103.3182056,-120.378024,-89.01598368,5.33515731874145,set #1
1970-01-01 00:00:14.440008390,3.6677451133728027,0.4172493517398834,1.4870394468307495,277.45625700000005,32.7345291,-35.532108300000004,132.88687620000002,-219.2014929,-1156.0188978,-31.9308327,-33.514443299999996,5.471956224350205,set #1
1970-01-01 00:00:14.450825679,3.673478126525879,0.4105149507522583,1.487019419670105,0.23871470999999644,-112.38625437,-340.14711978,-301.54405281,-514.4401403700001,-1319.05828587,-35.27506632,30.24329685,5.60875512995896,set #1
1970-01-01 00:00:14.460146177,3.6790919303894043,0.4037257730960846,1.4869474172592163,-114.76493184,-413.19767463,-491.46811506,-465.50329566,-321.28047393,-1257.59388261,-18.81326187,-195.21751704,5.745554035567715,set #1
1970-01-01 00:00:14.469561088,3.6845905780792236,0.3969164490699768,1.4869458675384521,39.74997312,-112.2995952,-129.412296,-77.16812064000001,-175.88118912,-1294.31991936,35.97187776,-107.97336576000001,5.88235294117647,set #1
1970-01-01 00:00:14.480258691,3.6899523735046387,0.38998621702194214,1.4870083332061768,-15.795653639999955,-301.07500839,332.91342903000003,299.1680913,-278.41254714,-1340.74505331,295.65461133,86.68482614999999,6.019151846785226,set #1
1970-01-01 00:00:14.489611137,3.6951866149902344,0.3830048143863678,1.4871424436569214,-91.04391894,-294.81819198,-859.3825371300001,-833.92331529,-487.52389803,-1633.66665657,-435.54267705,-223.05982764,6.155950752393981,set #1
1970-01-01 00:00:14.500780332,3.700316905975342,0.37595799565315247,1.4872572422027588,561.28245108,158.32256076,1249.14039276,1101.57418488,-503.57243352,-1387.17695376,477.2190462,255.51102876000002,6.292749658002736,set #1
1970-01-01 00:00:14.509710777,3.7053792476654053,0.3688327372074127,1.4874271154403687,1547.85839091,856.8615786900001,1943.2115246700002,1665.36450015,-365.79556064999997,-1324.02526971,385.12743945,392.10540915,6.429548563611491,set #1
1970-01-01 00:00:14.520187604,3.7104880809783936,0.36148953437805176,1.4876922369003296,338.78995176,177.8803962,718.78508676,662.4858942,-0.4350996000000009,-1069.3284108,95.23381452,28.05777468,6.566347469220246,set #1
1970-01-01 00:00:14.529699075,3.7154929637908936,0.35399916768074036,1.4881725311279297,-362.34035174999997,-517.90337625,-550.8997065,-454.79184075,-86.50592925000001,-965.20482825,-510.34727250000003,-196.82350350000002,6.703146374829001,set #1
1970-01-01 00:00:14.539827096,3.7202229499816895,0.34660109877586365,1.4887562990188599,17.958436080000006,-68.79817776,150.48839832,119.57097048,-109.10105544000001,-1323.33335784,-10.947103439999992,-94.77843336000001,6.839945280437757,set #1
1970-01-01 00:00:14.550157297,3.724947929382324,0.33909544348716736,1.4892313480377197,-237.71419347,-331.86165558,-1099.78306035,-826.82436408,-699.4207077,-1969.99497474,-477.12092883,-355.10574138,6.976744186046512,set #1
1970-01-01 00:00:14.560296285,3.7296669483184814,0.3314416706562042,1.4896193742752075,886.7944449,330.02395725,310.95291435,446.51401665,-412.88114985,-1564.1755194,256.0480611,231.18983745,7.113543091655266,set #1
1970-01-01 00:00:14.569903123,3.734215259552002,0.3238908052444458,1.490147590637207,1320.1548418500001,651.8484558299999,1059.49651743,1052.09136435,-202.11893013,-1430.17163562,325.03131609,410.69970045,7.250341997264022,set #1
1970-01-01 00:00:14.579595554,3.7387475967407227,0.3160850405693054,1.4905763864517212,-573.03718524,-441.05259744,-759.47184846,-670.93199784,-56.96482818,-1491.60456744,-72.71688918000001,-105.5038062,7.387140902872777,set #1
1970-01-01 00:00:14.590126979,3.7431297302246094,0.3084366023540497,1.4911282062530518,-111.33995924999999,-344.05327398,353.88316626000005,273.66161511,223.31129106,-1284.2429706599999,157.33753073999998,129.68149038,7.523939808481532,set #1
1970-01-01 00:00:14.599886882,3.7474522590637207,0.3007289469242096,1.491679310798645,273.25317786,169.6462716,-158.49121704,-90.52187898,-309.28074606,-1639.01726508,41.52386784000001,-66.08834154,7.660738714090288,set #1
1970-01-01 00:00:14.610422361,3.75164794921875,0.292969673871994,1.4922345876693726,326.49887049000006,-156.51479376,-329.70549768,-265.65695403,-164.87309709000002,-1287.80297256,-294.24057546,-248.47245696,7.7975376196990425,set #1
1970-01-01 00:00:14.619987237,3.7557058334350586,0.2852168381214142,1.492745041847229,552.8373084,432.32293455,516.19613448,484.05362421,-327.46822992,-1414.8912804000001,54.51658875,61.817956980000005,7.934336525307797,set #1
1970-01-01 00:00:14.629667270,3.7596521377563477,0.2775375247001648,1.493230938911438,-525.2867685,-586.4221779000001,-427.1395284,-325.21058700000003,-337.3387056,-1049.837646,-116.78270370000001,-86.679411,8.071135430916552,set #1
1970-01-01 00:00:14.641145933,3.7634878158569336,0.2699257731437683,1.4937057495117188,305.60885823,51.41562777000001,591.48258507,507.85464093,-210.27344403,-680.81590941,202.13569467,140.46251349,8.207934336525307,set #1
1970-01-01 00:00:14.649991739,3.7671401500701904,0.26237714290618896,1.4942371845245361,-741.10931895,-840.0950543700001,-1792.45790646,-1455.8312800200001,-70.8239883,-519.8296459200001,-734.26586376,-593.11791825,8.344733242134064,set #1
1970-01-01 00:00:14.659533966,3.770625114440918,0.2549121379852295,1.4946585893630981,-40.63458126,-302.36607882000004,-411.20764464,-314.11907904,-105.03292176000001,-364.41525978,-17.79155664,-11.31798798,8.481532147742818,set #1
1970-01-01 00:00:14.669886100,3.7740044593811035,0.24746744334697723,1.4950135946273804,-79.07721899999999,-137.30624699999998,-652.7415960000001,-443.657955,-24.951693000000002,-157.987635,-214.95844499999998,-67.508337,8.618331053351573,set #1
1970-01-01 00:00:14.679624784,3.777308464050293,0.23999622464179993,1.4953407049179077,509.61924,472.58555759999996,541.20548352,473.02942128,-92.77436688,120.46200816,324.2787912,336.7121472,8.755129958960328,set #1
1970-01-01 00:00:14.689688194,3.7805278301239014,0.232469379901886,1.4956861734390259,-110.30730593999999,-198.53916887999998,-247.49728536,-262.1571537,338.08179132,348.96144738000004,-128.58728064000002,-70.71478986,8.891928864569083,set #1
1970-01-01 00:00:14.700319278,3.7836616039276123,0.22485406696796417,1.4959913492202759,-332.84558346,-259.12395677999996,-522.60611598,-491.34048132,68.03157347999999,649.0517443800001,63.652656600000014,32.78388828,9.028727770177838,set #1
1970-01-01 00:00:14.709543693,3.7867307662963867,0.21720388531684875,1.496234655380249,-573.1859055,-677.78206704,222.92589384000001,189.039162,323.26228818000004,527.48240922,-13.85640945,-95.4533892,9.165526675786593,set #1
1970-01-01 00:00:14.719562757,3.789747714996338,0.2095005214214325,1.4964817762374878,-491.02687686,-475.75509696,-708.2562661200001,-756.3730792800001,-119.60361465,186.68120913,-368.18130608999996,-257.51477778,9.30232558139535,set #1
1970-01-01 00:00:14.729798782,3.7927231788635254,0.2017223984003067,1.4966713190078735,-449.31383171999994,-434.81451858,-418.48202058,-460.08609192,-179.03370264,243.08419824,-95.84955276,65.22054396,9.439124487004104,set #1
1970-01-01 00:00:14.739710081,3.7956326007843018,0.193940207362175,1.4967690706253052,85.06478916,14.28193182,859.62732453,888.38689212,358.10193159000005,659.3720523000001,253.83288723,264.61528158,9.575923392612859,set #1
1970-01-01 00:00:14.749888885,3.7984774112701416,0.18616914749145508,1.4967517852783203,79.66878075,-170.60272515,197.49043665,270.96267509999996,95.03043225,746.3079117,-110.67408105,-122.6341038,9.712722298221614,set #1
1970-01-01 00:00:14.760372865,3.8013532161712646,0.17823413014411926,1.4965715408325195,224.12349375000002,263.90349375,1271.00426115,855.9568563,139.87909065,1831.85325765,-178.7889948,-229.00095855,9.849521203830369,set #1
1970-01-01 00:00:14.769931304,3.804060697555542,0.17035898566246033,1.496379017829895,-526.8595956,-457.89673488000005,519.1224885600001,286.34502936,-1349.03776488,114.75592752,97.64133912,256.560564,9.986320109439124,set #1
1970-01-01 00:00:14.779763210,3.806734561920166,0.16262800991535187,1.4962631464004517,37.755412499999984,-208.86394230000002,2011.8259551,1631.7299817,-409.4874030000001,182.81953560000005,400.7224182,247.0309998,10.12311901504788,set #1
1970-01-01 00:00:14.789816844,3.8090624809265137,0.15538650751113892,1.496323585510254,1120.4904282,643.48674624,2212.80689136,2051.8702152,230.2064856,1337.1779148,469.93644672,437.58732888000003,10.259917920656635,set #1
1970-01-01 00:00:14.801186311,3.8113813400268555,0.14804492890834808,1.4962466955184937,999.45314547,716.19379065,1707.8108073,1629.71508141,319.84798365,1476.2107257300001,546.59798427,316.24653255,10.39671682626539,set #1
1970-01-01 00:00:14.809840906,3.8135719299316406,0.14079050719738007,1.496132493019104,-740.8775244,-729.33684564,-163.37214426000003,-334.9968414,769.3101748800001,1910.19312822,54.430041900000006,38.83006842,10.533515731874145,set #1
1970-01-01 00:00:14.820316303,3.81559419631958,0.13370978832244873,1.4959651231765747,-15.534861419999999,-60.721796069999996,1098.5000707200002,788.53627593,24.74417517,1769.90215818,282.16410066,279.18873333000005,10.6703146374829,set #1
1970-01-01 00:00:14.830531347,3.81748366355896,0.1267557144165039,1.4957185983657837,-1.4739371400000003,-8.40581898,-161.74747485,83.13839001000001,-34.99723539,1647.25856568,-24.307095540000002,-6.473372100000001,10.807113543091655,set #1
1970-01-01 00:00:14.840441692,3.8192408084869385,0.11986091732978821,1.4955650568008423,-443.27901696,-466.17500124,-816.46950216,-778.89721104,111.57878316,1772.5205628,-195.1059942,-102.95229360000002,10.94391244870041,set #1
1970-01-01 00:00:14.850881088,3.8208091259002686,0.11315497756004333,1.4954200983047485,46.91296896000001,-96.28634496000001,415.93066944000003,492.64708896,114.39518688,1804.55515968,-94.72006752000001,31.06281983999999,11.080711354309166,set #1
1970-01-01 00:00:14.861047494,3.8222475051879883,0.10654158890247345,1.495282769203186,7.39548576,110.65445274000001,-231.58245707999998,46.11969414,181.40761626,2142.0682990200003,185.57316648,132.39271032,11.21751025991792,set #1
1970-01-01 00:00:14.869616020,3.823577880859375,0.10010042041540146,1.4951720237731934,-223.0977372,-407.490954,-149.0514402,-307.5972276,137.3223228,2135.6668944,135.0516258,249.5889162,11.354309165526676,set #1
1970-01-01 00:00:14.879968393,3.824838161468506,0.09369969367980957,1.4950796365737915,1037.0982203400001,855.1452499200001,1046.55445752,1071.9402493799998,-67.30841520000001,2275.24099023,302.41722848999996,294.51980298,11.49110807113543,set #1
1970-01-01 00:00:14.889597642,3.826014757156372,0.08740384876728058,1.4950058460235596,-350.12707236,-348.57154332000005,-1227.63570852,-633.74425764,232.12486518,2184.25147278,-577.60813812,-365.16661272,11.627906976744185,set #1
1970-01-01 00:00:14.899890172,3.827127695083618,0.08096943795681,1.4948796033859253,128.26007844,48.64162524000001,531.27640176,377.28082703999996,221.17954092,2385.3278701199997,138.59977248,96.4584036,11.76470588235294,set #1
1970-01-01 00:00:14.909797895,3.8281662464141846,0.07468362152576447,1.4947221279144287,-705.0285957,-834.99014625,-97.32000135000001,46.44840915,204.08451765,2258.6923788,-244.78053599999998,-383.61481860000004,11.901504787961697,set #1
1970-01-01 00:00:14.920047748,3.829137086868286,0.06842418015003204,1.4945590496063232,107.83850220000001,44.43959988,1044.52333596,760.13918292,25.3359366,2361.00658092,427.91955179999997,247.4742894,12.038303693570452,set #1
1970-01-01 00:00:14.929644573,3.8300840854644775,0.06202966347336769,1.4943276643753052,186.64274147999998,90.80093958,-620.49594906,-431.38999956000004,66.99031053,2382.78289275,-329.54653992,-178.22688390000002,12.175102599179207,set #1
1970-01-01 00:00:14.940068948,3.8309028148651123,0.0558474138379097,1.4940825700759888,70.67324472,-139.41466187999998,-90.76528656,4.790692919999998,237.44208228,2491.9518093600004,186.57634944,76.27866168,12.311901504787961,set #1
1970-01-01 00:00:14.949903238,3.831676959991455,0.04959564656019211,1.4937608242034912,-460.06565982,-286.0791024,-792.92726916,-742.7629357200001,255.65762820000003,2433.86401284,-501.13781406,-360.35353848,12.448700410396716,set #1
1970-01-01 00:00:14.959847677,3.8324055671691895,0.04343586787581444,1.4934537410736084,698.55528093,623.9469405,166.62694347,222.86416737000005,65.34713133000001,2293.40242092,399.96161205,294.51324786000004,12.585499316005471,set #1
1970-01-01 00:00:14.970341909,3.8330540657043457,0.03736315667629242,1.493170142173767,-314.15243028,-448.6042704,-1724.9256495900001,-1183.84209138,87.52635372,2177.09196978,-164.86690271999998,-60.60355821,12.722298221614228,set #1
1970-01-01 00:00:14.979656684,3.833580732345581,0.03137475997209549,1.492943286895752,1559.55990528,1254.34817196,2076.23645112,1850.346888,-586.4755338,2060.99173332,787.78122228,721.24289172,12.859097127222983,set #1
1970-01-01 00:00:14.990203369,3.834055185317993,0.025488348677754402,1.492748737335205,410.18227458,274.06762227,-33.192152369999995,209.39650368,-98.79064844999999,2164.30756581,93.50193605999999,229.89329883,12.995896032831737,set #1
1970-01-01 00:00:15.000428188,3.834441661834717,0.01971364952623844,1.492659330368042,1192.9386346800002,519.4227542399999,1175.05855584,735.01447968,355.03584636,2582.53629192,78.97553508,79.4435304,13.132694938440492,set #1
1970-01-01 00:00:15.009823072,3.834752082824707,0.014124946668744087,1.4925594329833984,796.26347424,757.34144928,1204.11902208,1301.99751552,298.81166016000003,2823.8396159999998,393.71052864,270.67740960000003,13.269493844049247,set #1
1970-01-01 00:00:15.020397174,3.8349368572235107,0.008694889955222607,1.4925909042358398,-2319.56258274,-1902.25036482,-4054.6708511399997,-3429.48890076,166.05003402,2340.6731712,-1489.17310308,-1105.25760696,13.406292749658002,set #1
1970-01-01 00:00:15.029560316,3.8350601196289062,0.0033118901774287224,1.4926061630249023,-103.30005192,-133.45560695999998,-70.70347595999999,-266.78489292,201.60078744,2368.7467689600003,-152.52087552,116.98488827999999,13.543091655266757,set #1
1970-01-01 00:00:15.039876688,3.835170269012451,-0.0021197963505983353,1.4925180673599243,307.46815632000005,240.80324112,748.81954368,455.8660704,52.02827136000001,2061.01099152,180.22532112,64.6036248,13.679890560875513,set #1
1970-01-01 00:00:15.050014484,3.835236072540283,-0.007489621639251709,1.4924439191818237,-70.66108296,-181.96630607999998,859.0417274399999,1247.6768428799999,-20.73260748,2177.8126032,536.9251446000001,391.49562816,13.816689466484268,set #1
1970-01-01 00:00:15.059879529,3.8351824283599854,-0.012699080631136894,1.4924787282943726,635.45554332,294.10698369,818.98303968,682.8122792400001,175.30570746,2046.98529867,101.35336692000001,-45.932039790000005,13.953488372093023,set #1
1970-01-01 00:00:15.069778669,3.835120916366577,-0.017991049215197563,1.492493987083435,-119.08182,-133.40059863000005,-858.51057747,-767.90278617,-181.40770089,1890.2790199800002,-293.72537844,-167.60730129,14.090287277701778,set #1
1970-01-01 00:00:15.080307472,3.8349788188934326,-0.023064158856868744,1.492540717124939,403.9953216,199.8839856,1038.02987808,834.0430737600001,356.95087584,2044.26455376,229.50936528,20.6755848,14.227086183310533,set #1
1970-01-01 00:00:15.089940536,3.834826707839966,-0.028208652511239052,1.492629051208496,156.69670847999998,137.49133008,-607.4334864,-502.80994296000006,-322.1351016,1762.74447336,-427.82542296,-250.20720816,14.363885088919288,set #1
1970-01-01 00:00:15.109554040,3.8346409797668457,-0.033121176064014435,1.492689847946167,1348.223214,1041.2621076,1598.7228816,1510.2025068,-50.635962,1276.7922648,528.4139328,301.1069568,14.500683994528044,set #1
1970-01-01 00:00:15.120322692,3.834171772003174,-0.04242216423153877,1.4928172826766968,1214.95361988,1073.28856752,-126.58851192000003,534.9125605199999,25.90185468,1208.19661248,187.21345187999998,176.70936504000002,14.6374829001368,set #1
1970-01-01 00:00:15.130000341,3.8338406085968018,-0.046765074133872986,1.4929828643798828,-388.10027022,-365.62965465,-870.7805343900001,-1060.7721087599998,186.23324538,1284.89077431,-362.34886974,-120.41624205000001,14.774281805745554,set #1
1970-01-01 00:00:15.139738786,3.8334949016571045,-0.05089152604341507,1.4930741786956787,-312.67660242,-144.39055878,-434.5454646,-359.64797076,152.78278158,1563.4580403,-5.80935498,-2.027156820000002,14.911080711354309,set #1
1970-01-01 00:00:15.149934041,3.8331100940704346,-0.054782383143901825,1.4931496381759644,805.52298879,680.82499992,558.48165828,576.6104331,-119.94909654,1244.61196782,236.97956061,182.94297644999997,15.047879616963064,set #1
1970-01-01 00:00:15.159888017,3.8326923847198486,-0.05857355147600174,1.4931914806365967,360.44058726,200.80683596999998,1822.78980234,1464.22012347,-0.021422310000000166,796.16163315,370.2212553,141.31408044,15.184678522571819,set #1
1970-01-01 00:00:15.169940698,3.8322553634643555,-0.06208183988928795,1.4932279586791992,-142.40577234,-93.36283866000001,-1007.7167529,-916.9987242000001,-163.8226668,531.81760008,-246.98333399999999,-55.219433880000004,15.321477428180575,set #1
1970-01-01 00:00:15.179699171,3.8317699432373047,-0.06546683609485626,1.4932646751403809,-16.720818660000006,-300.63358532999996,-311.33247366,-523.75868415,-21.46454895,380.85116550000004,-282.24999231,-219.88640583,15.45827633378933,set #1
1970-01-01 00:00:15.189671743,3.8312885761260986,-0.06871654093265533,1.4932376146316528,116.12423277,-167.91485646,447.3431348100001,397.12556325,-20.84289012,351.87832368,-232.20671955,-49.238973810000005,15.595075239398085,set #1
1970-01-01 00:00:15.199573028,3.830775737762451,-0.07186923921108246,1.4931696653366089,-61.852316759999994,235.93640148,-564.17549448,-514.75296756,-195.82991688,406.14590016,-52.52536224,164.45704236,15.73187414500684,set #1
1970-01-01 00:00:15.209937561,3.8302369117736816,-0.07492440938949585,1.4930505752563477,-117.40789008,-47.62109937000001,-136.82171411999997,30.958571669999998,-54.05837346,373.7236854,-81.76474098,48.056937239999996,15.868673050615595,set #1
1970-01-01 00:00:15.219951379,3.829667568206787,-0.07783914357423782,1.492864966392517,-19.11565578,27.15822563999999,-158.78188833000002,30.439744139999988,-86.15518119000001,152.23866879,-145.25858802000002,-140.10763884000002,16.00547195622435,set #1
1970-01-01 00:00:15.229523885,3.8290703296661377,-0.08064068853855133,1.4927542209625244,706.819152,628.8303216,908.68786905,641.26101585,112.26905430000001,256.45916985,-46.63303125,14.0151024,16.142270861833104,set #1
1970-01-01 00:00:15.239889133,3.8284945487976074,-0.08348529040813446,1.4926282167434692,-112.54979697000002,-53.53179623999998,-93.03483423,163.28358579000002,169.35824178000001,-285.67437327,-3.515204549999993,-132.25844268,16.27906976744186,set #1
1970-01-01 00:00:15.250148284,3.8279318809509277,-0.08625758439302444,1.4925217628479004,455.34895848,391.08161820000004,403.76295024,477.60342708,-205.04155464,79.33439904000001,-27.90073572,78.78240084,16.415868673050614,set #1
1970-01-01 00:00:15.259873617,3.827362060546875,-0.08904264122247696,1.4924342632293701,-55.93595474999999,87.48430704,896.7888898799999,606.86356107,198.85784841,526.67093505,213.87451176000002,208.87139364,16.55266757865937,set #1
1970-01-01 00:00:15.269825208,3.8268089294433594,-0.09176258742809296,1.4922491312026978,545.7389090400001,165.73352016,770.3501052,422.52463968,-162.89037960000002,346.37632848,262.39833048,322.88681256,16.689466484268127,set #1
1970-01-01 00:00:15.279686201,3.82625412940979,-0.09443113207817078,1.4919865131378174,771.16069251,894.41982825,1291.5152172,1054.45567695,95.77383191999999,698.71583262,284.42699493,241.46055843000002,16.82626538987688,set #1
1970-01-01 00:00:15.290407884,3.8257100582122803,-0.09697641432285309,1.4916716814041138,676.34540064,478.78044864000003,2017.2539712,1823.00067768,-6.87629904,1256.5889232,932.76776892,773.92951584,16.963064295485637,set #1
1970-01-01 00:00:15.299981582,3.8251655101776123,-0.09940361231565475,1.4913103580474854,-321.11963130000004,-365.10638424,680.59725942,420.59723238000004,-133.4057829,490.64956434,-22.008611039999998,-166.6276131,17.09986320109439,set #1
1970-01-01 00:00:15.309597003,3.8246121406555176,-0.1017318069934845,1.4909181594848633,392.21610284999997,296.12294673,1716.6964269,1502.49966126,-107.58677942999999,-1764.47407851,380.54037605999997,132.23279159999998,17.236662106703147,set #1
1970-01-01 00:00:15.319965351,3.8240582942962646,-0.10397475212812424,1.4905235767364502,-508.51840533,-297.90659652,-230.59299198,-6.72171084,-54.462988710000005,-2527.0164570300003,-139.48416534,-169.86533031,17.3734610123119,set #1
1970-01-01 00:00:15.329959381,3.823526620864868,-0.10608752071857452,1.4900599718093872,157.49060808000002,26.270700690000012,1018.50350706,766.16105319,-48.05788104,-2851.79730849,95.16039233999999,121.93196496,17.510259917920656,set #1
1970-01-01 00:00:15.340036857,3.8230090141296387,-0.10808558762073517,1.4896503686904907,74.12843685,78.08458983,876.65645886,1091.65394091,-14.230104720000002,-2094.05587833,58.03102617,26.635234080000004,17.647058823529413,set #1
1970-01-01 00:00:15.350063074,3.822509765625,-0.11004385352134705,1.4892586469650269,183.4770912,138.3270057,504.39494976,506.83919130000004,-180.01365408,-824.71399608,-259.93510296,14.28551514,17.783857729138166,set #1
1970-01-01 00:00:15.359928596,3.8220486640930176,-0.111882284283638,1.488810658454895,801.31619568,783.097653,1702.99606152,1583.76671388,-142.21264044,-1243.06964028,247.73293896,30.528304560000002,17.920656634746923,set #1
1970-01-01 00:00:15.369715679,3.821652412414551,-0.11361286044120789,1.4883465766906738,-317.0040354,-498.76758087,440.353329,338.2542189,-268.63979766,-3110.48144511,-66.51416304,92.67502647,18.057455540355676,set #1
1970-01-01 00:00:15.380110490,3.8212735652923584,-0.11525492370128632,1.4878989458084106,54.9016377,239.3672775,343.7215899,412.9222851,-539.7630147000001,-5780.185128900001,210.5967981,71.559618,18.194254445964432,set #1
1970-01-01 00:00:15.389774072,3.8209197521209717,-0.11686520278453827,1.4873629808425903,283.21396272000004,299.41039128,450.08144688,515.9422476,-98.02279344,-5919.708771600001,-320.5148544,-95.11237944,18.331053351573185,set #1
1970-01-01 00:00:15.399685371,3.820587396621704,-0.11830420047044754,1.4868578910827637,715.21221798,504.45006924000006,1625.24498838,1668.68663169,445.62458772,-6257.6470086,512.9573127900001,357.54859412999997,18.467852257181942,set #1
1970-01-01 00:00:15.410201538,3.8202831745147705,-0.11963344365358353,1.4862791299819946,-655.25003076,-237.21982752,-1743.4115134800002,-1567.2219341999999,256.35121044,-5162.48359458,-111.34077474000003,145.24991598000003,18.6046511627907,set #1
1970-01-01 00:00:15.419863927,3.8199973106384277,-0.12082432955503464,1.4856334924697876,217.72114962,410.39450127000003,446.65260354000003,376.38545646,303.39524514,-3195.41372358,52.1789814,215.91432798000002,18.741450068399452,set #1
1970-01-01 00:00:15.429704416,3.819734811782837,-0.12184453755617142,1.4850345849990845,108.27081408000002,96.02359104,995.69357472,1293.52524288,12.618053760000002,-5075.5447392,466.85719392,202.8746928,18.87824897400821,set #1
1970-01-01 00:00:15.440078485,3.819505214691162,-0.1227218359708786,1.484368085861206,41.47113165,-64.01016375,785.89318275,904.8598611,-294.2233242,-4153.68989295,138.0432573,33.33640245,19.01504787961696,set #1
1970-01-01 00:00:15.449595201,3.819288969039917,-0.12342175841331482,1.4837068319320679,-119.8501356,80.41668726,164.72735838,231.26793339,-118.10631651,-4278.15604359,87.00196362000001,-47.90273085,19.151846785225718,set #1
1970-01-01 00:00:15.459804761,3.8190834522247314,-0.12392538040876389,1.483076810836792,-884.92438008,-661.89098508,-451.58216025,-318.14825406,166.81233582,-2269.28593593,-279.53514069,-108.98268888,19.288645690834475,set #1
1970-01-01 00:00:15.469882476,3.818843364715576,-0.12428995221853256,1.482398271560669,-1.558128,309.02263860000005,-84.65577276,-18.23132376,313.24347912,1396.8841068,3.1509082799999995,-40.33327584,19.425444596443228,set #1
1970-01-01 00:00:15.479780900,3.81858491897583,-0.12449124455451965,1.4816704988479614,1043.736993,430.01466300000004,4345.372239,3341.870454,230.779224,4942.174458,572.2044510000001,291.46794300000005,19.562243502051984,set #1
1970-01-01 00:00:15.489603984,3.8183188438415527,-0.12453263998031616,1.4809383153915405,563.23969728,615.57288624,2016.09507216,1765.9663132800001,-351.83966064,6269.43738096,515.2408123199999,261.11183904,19.699042407660738,set #1
1970-01-01 00:00:15.500334489,3.8181381225585938,-0.12443887442350388,1.4801216125488281,-673.8104178,-345.12424985999996,-376.88549808000005,-386.01163926000004,17.009913570000002,4721.81982714,-354.75661455,-160.94625027,19.835841313269494,set #1
1970-01-01 00:00:15.510033596,3.817913770675659,-0.12424610555171967,1.4793058633804321,366.14683404,71.52722928,1897.4293416,1729.12638132,-53.92328292,1597.98650232,262.91928312,125.267805,19.972640218878247,set #1
1970-01-01 00:00:15.520406473,3.8177132606506348,-0.12394611537456512,1.4784893989562988,-161.32821042,-470.08178958,-1375.75173489,-1002.53008401,-62.83631484000001,1499.53588746,-476.62472598,-364.69601883,20.109439124487004,set #1
1970-01-01 00:00:15.530497539,3.817533016204834,-0.12353572994470596,1.4776577949523926,-642.30104367,-366.47698425,-332.64854337,-383.46900501,219.26638110000002,3604.87349469,-351.98059611,-168.38465553,20.24623803009576,set #1
1970-01-01 00:00:15.540479171,3.817370891571045,-0.12308549135923386,1.476848840713501,661.07623569,669.43670352,2224.1881935,1799.52693336,-111.06052191,4108.17864522,514.16666574,449.19876689999995,20.383036935704514,set #1
1970-01-01 00:00:15.549927223,3.817121744155884,-0.12270363420248032,1.4760340452194214,-436.08946173,-194.74988598,-559.09049547,-424.07676714,-135.34259154,2693.3479478100003,-125.77974786,-22.032385440000002,20.51983584131327,set #1
1970-01-01 00:00:15.559981573,3.817023277282715,-0.12210135161876678,1.4752894639968872,-124.20368259000001,-83.00399913000001,-555.5500700099999,-231.17979534,-313.28594817,2291.54806179,-352.79864217,-258.88524363,20.656634746922023,set #1
1970-01-01 00:00:15.569817531,3.8170113563537598,-0.12135807424783707,1.4744690656661987,204.65135769,545.13773574,954.09604524,875.7904201800001,25.30079916,1361.0822592900001,386.90128074,364.28407275,20.79343365253078,set #1
1970-01-01 00:00:15.579771984,3.8170626163482666,-0.12045162916183472,1.4737136363983154,-351.36449088,-523.6129080000001,21.69905712000002,0.5907345600000014,166.22092032,-140.77285248,132.48875328,104.16507504,20.930232558139533,set #1
1970-01-01 00:00:15.589883077,3.817171812057495,-0.11933846026659012,1.4730050563812256,-17.16119769,32.087402880000006,297.23819034,269.21879556,-11.00639943,-121.36200765000001,-48.15660642,-50.09520399,21.06703146374829,set #1
1970-01-01 00:00:15.599987257,3.8173274993896484,-0.11800974607467651,1.4723702669143677,243.88443768,192.96981248999998,-172.02319212000003,-58.38359124000001,135.1657437,97.98038093999999,167.27833122,256.13136627,21.203830369357046,set #1
1970-01-01 00:00:15.610257137,3.8175408840179443,-0.11649273335933685,1.4717501401901245,275.99028327,265.14877896,605.4166131,552.2261479800001,-88.9203198,446.58760887,252.70758708,201.84082113,21.3406292749658,set #1
1970-01-01 00:00:15.619876850,3.8177876472473145,-0.11480946838855743,1.4712085723876953,-635.876865,-354.0777435,-2896.50855,-2243.442864,-162.022341,445.838835,-784.5996210000001,-483.5165205,21.477428180574556,set #1
1970-01-01 00:00:15.629590738,3.8180863857269287,-0.11299842596054077,1.4706848859786987,344.77952886,361.06628844,667.45181412,614.53941978,106.94854794,-1849.8115482599999,282.77393274,206.64096804,21.61422708618331,set #1
1970-01-01 00:00:15.640188682,3.818427324295044,-0.11107932031154633,1.470159649848938,212.7008598,228.49943376,-180.9988011,6.918391740000018,193.19013791999998,-1081.2782323200001,-10.31973618,171.89094078,21.751025991792066,set #1
1970-01-01 00:00:15.650144327,3.818793296813965,-0.10906121879816055,1.469639778137207,168.7181535,236.68336068000002,1564.80816648,1308.12797583,631.45804293,127.61523216,701.3641287900001,642.79233837,21.88782489740082,set #1
1970-01-01 00:00:15.660458076,3.819201707839966,-0.10699615627527237,1.4692326784133911,115.44481728,143.31916248,-265.85827944000005,-156.26485055999999,594.6682482,3420.5505828,-79.79594688,100.42828692,22.024623803009575,set #1
1970-01-01 00:00:15.670147169,3.8196332454681396,-0.10481284558773041,1.4689675569534302,138.17333088,394.23707076,994.1542232700001,770.9153517,-140.60741799,811.4218000200001,269.50022658,280.58008017000003,22.161422708618332,set #1
1970-01-01 00:00:15.679775226,3.820091724395752,-0.10254395753145218,1.468772053718567,4.240356120000001,-265.04244702,382.16593584,410.05841526,-258.76690554,96.4389582,108.26316072,108.61733376000001,22.298221614227085,set #1
1970-01-01 00:00:15.689727294,3.8205485343933105,-0.10020473599433899,1.468575119972229,-238.64247966000002,175.69664268,-843.38723508,-763.12245828,162.22274562,1057.0963689,-289.46928348,-49.9195437,22.43502051983584,set #1
1970-01-01 00:00:15.700947988,3.821052312850952,-0.09774648398160934,1.468420147895813,828.42853548,614.08004112,1342.22916828,1369.3840851599998,202.5500724,1666.6460506800001,323.38771764,245.82421344,22.571819425444595,set #1
1970-01-01 00:00:15.709830749,3.8215699195861816,-0.09521222859621048,1.4683235883712769,541.5365716800001,553.59736068,897.11433318,900.9987019800001,-21.53112624,2199.84281244,402.28197633,378.83006109,22.70861833105335,set #1
1970-01-01 00:00:15.719732273,3.822077751159668,-0.09259124100208282,1.4681448936462402,-575.1579756,-386.11148628,-1821.97346292,-1491.1331658600002,7.464789930000002,672.5294191200001,-595.43901222,-376.80020703,22.845417236662108,set #1
1970-01-01 00:00:15.729971635,3.822584390640259,-0.0898134857416153,1.4679709672927856,76.19214134999999,-117.65523509999998,415.84937160000004,469.57654185,-102.24919184999999,-293.68539330000004,114.5159808,98.227506,22.98221614227086,set #1
1970-01-01 00:00:15.739790666,3.8231050968170166,-0.08687800914049149,1.4677460193634033,285.8336949,308.56439874,742.3339092000001,751.25867154,208.70407272,-724.97977656,115.13014422,169.40411436,23.119015047879618,set #1
1970-01-01 00:00:15.750231016,3.82361102104187,-0.08378088474273682,1.4675958156585693,-436.4256624,-319.37289383999996,-493.04181264,-493.68916272,223.85624664,-474.29652192000003,-233.88885624000002,-86.5122336,23.25581395348837,set #1
1970-01-01 00:00:15.760082233,3.8241066932678223,-0.0806044191122055,1.4673795700073242,101.76493548,235.25614124999998,322.19664516,342.17138514,-143.84468475,-1000.37317302,-41.564496090000006,43.01681085,23.392612859097127,set #1
1970-01-01 00:00:15.769840467,3.8246188163757324,-0.07724373042583466,1.467132329940796,253.87786788,260.08750794,645.07365234,693.2826646200001,-48.28943574,72.29341626000001,248.60072094,246.04295469000002,23.52941176470588,set #1
1970-01-01 00:00:15.779586780,3.8251450061798096,-0.0737125352025032,1.4669501781463623,184.93733699999999,247.83663840000003,504.357282,435.591702,113.7058806,355.7708934,184.37969940000002,217.6247502,23.666210670314637,set #1
1970-01-01 00:00:15.789878356,3.8256566524505615,-0.07005299627780914,1.4667632579803467,85.91596104,268.5058896,1191.56190036,767.5690074,-228.10062132000002,657.0655884,296.30906136,242.9149944,23.803009575923394,set #1
1970-01-01 00:00:15.799917209,3.826164960861206,-0.06622634083032608,1.466566801071167,-18.202260179999996,-16.02792672,457.90541433,364.6326684,243.81133179,244.36658142,-49.30947372,-54.75495207,23.939808481532147,set #1
1970-01-01 00:00:15.809627283,3.826664447784424,-0.06226363405585289,1.4662820100784302,-250.16917575000002,-199.59628728,-449.7243036,-318.15984876,243.73975626,1016.5643373600001,10.865696400000001,-30.864744300000005,24.076607387140903,set #1
1970-01-01 00:00:15.819846618,3.8271572589874268,-0.058162759989500046,1.4659605026245117,518.31990678,351.41501382,254.56273752,301.12061459999995,306.97328844000003,1090.4150439,-69.69315132,4.74124248,24.213406292749657,set #1
1970-01-01 00:00:15.829487550,3.8276548385620117,-0.05394263565540314,1.465662956237793,-64.28843850000001,-206.12358,-958.074351,-877.9276155,98.512284,690.0345855,-320.027682,-306.06303,24.350205198358413,set #1
1970-01-01 00:00:15.839851367,3.828144073486328,-0.049714941531419754,1.465288519859314,-244.25028848999997,-70.19525799,-283.78730679,-157.99301388,202.48179081,-449.91334517999996,69.86091723,144.62566092,24.487004103967166,set #1
1970-01-01 00:00:15.850296962,3.8286471366882324,-0.045215293765068054,1.4648771286010742,-739.39496904,-479.77444164,-948.0944187,-547.1592180600001,217.31867118000002,119.94484865999999,-131.57671176,-226.48128984,24.623803009575923,set #1
1970-01-01 00:00:15.860528219,3.8292157649993896,-0.04074516147375107,1.4641506671905518,-475.61646132,-263.29381923000005,-92.64312018,6.83541456,127.55029755,-243.42155097,-85.81785849,-126.47242569000001,24.76060191518468,set #1
1970-01-01 00:00:15.869855630,3.8297159671783447,-0.035897042602300644,1.4637514352798462,360.87588420000003,224.81131530000002,317.1441312,287.5932657,102.61631640000002,816.3224706,264.5419647,291.2789217,24.897400820793433,set #1
1970-01-01 00:00:15.880521762,3.8301937580108643,-0.030903007835149765,1.4632543325424194,-1137.68317962,-1108.7480258399999,-2291.01707718,-1897.8643593,425.26810248000004,1550.5176921000002,-782.0876411400001,-541.22143608,25.03419972640219,set #1
1970-01-01 00:00:15.889764059,3.8307065963745117,-0.02586646005511284,1.4624160528182983,-53.462461260000005,436.63453392,-44.44001952,20.016764430000002,197.79672081,1595.21292216,76.15010676,-3.3331311,25.170998632010942,set #1
1970-01-01 00:00:15.899855602,3.831092357635498,-0.020326126366853714,1.4618196487426758,-236.09778192,166.92433757999999,-870.98683698,-848.71301034,562.69930392,729.3246862200001,-130.25321712000002,-43.824521520000005,25.3077975376197,set #1
1970-01-01 00:00:15.909628856,3.8314056396484375,-0.014602238312363625,1.4612613916397095,-1023.87181728,-632.08285608,-1443.07773792,-1492.0391397600001,344.83682376,-173.8225788,-543.1458084000001,-421.67672352,25.444596443228455,set #1
1970-01-01 00:00:15.920719135,3.8317160606384277,-0.00886252336204052,1.4603224992752075,-74.72343839999999,53.5624362,-687.4939441500001,-568.76291745,126.08674455,-649.2234937500001,-324.42464340000004,-301.308735,25.58139534883721,set #1
1970-01-01 00:00:15.929895151,3.831880569458008,-0.0026970787439495325,1.45964515209198,-57.335722859999976,-27.828432449999994,982.5471056700001,846.5710593599999,169.24440663000001,-272.35669071,206.9055339,160.47098262,25.718194254445965,set #1
1970-01-01 00:00:15.939793575,3.832012891769409,0.0035488936118781567,1.4585555791854858,22.742918250000006,121.419987,362.79612525,321.27204525,-322.96998825000003,-1147.803228,114.35981699999999,214.3573575,25.85499316005472,set #1
1970-01-01 00:00:15.949853885,3.832034111022949,0.010095756500959396,1.4577689170837402,-160.59204525,46.03416675,-277.5100302,-167.5932726,-506.549394,-2723.7481205999998,37.6732122,124.59874244999999,25.991792065663475,set #1
1970-01-01 00:00:15.960810173,3.8319623470306396,0.016694700345396996,1.4568235874176025,-1383.81100962,-1138.78885302,-2006.51578647,-1775.40375285,-624.47803977,-4018.76449767,-878.9701264500001,-577.03077705,26.128590971272228,set #1
1970-01-01 00:00:15.969556797,3.83178973197937,0.023200374096632004,1.4555740356445312,-277.35354894,227.45388237,-40.280382089999996,-66.58069119,-706.63606182,-5366.83248426,-142.0377075,-72.75061248,26.265389876880985,set #1
1970-01-01 00:00:15.979422796,3.831557273864746,0.02985948696732521,1.4545055627822876,-141.02617776000005,-87.38938416000002,106.27777524000004,178.28312423999995,-584.3847906000001,-6388.9800000000005,-109.32256140000001,-181.56838752,26.40218878248974,set #1
1970-01-01 00:00:15.989955175,3.831294536590576,0.0361052043735981,1.453179121017456,448.64741025,357.68602350000003,798.228834,846.2228482500001,-495.91215375,-5482.757007,234.7848555,82.00292099999999,26.538987688098494,set #1
1970-01-01 00:00:15.999900091,3.830960273742676,0.04228551685810089,1.451865553855896,-16.110974880000004,186.18230904,-209.59419819,-231.52064481,-323.06734044,-5165.00875566,-84.59334234,-131.85807726,26.67578659370725,set #1
1970-01-01 00:00:16.009848821,3.8306055068969727,0.04844094067811966,1.4504371881484985,1037.0012784300002,1037.85944613,1555.8272609100002,1035.7449788400002,-276.99060285,-4351.86236316,340.38288492000004,177.70826307,26.812585499316004,set #1
1970-01-01 00:00:16.020372140,3.8302114009857178,0.05482202023267746,1.4491446018218994,545.4247211594424,364.05230118460236,-202.73092813185627,-142.71953392906786,-347.6448560497121,-2241.44482987966,-80.0538494076988,-71.31007248014495,26.94938440492476,set #1
1970-01-01 00:00:16.029787290,3.8298182487487793,0.06093553453683853,1.4475703239440918,207.396347507305,-48.73882067235866,-50.819446621106756,22.704159101681796,-345.42899023201954,734.325093539813,84.97060152879693,11.170072569854861,27.086183310533514,set #1
1970-01-01 00:00:16.039800632,3.829331159591675,0.0672399252653122,1.4461085796356201,772.45874784,357.24946608000005,-8.99111928,14.754514320000002,-58.69012656,1000.9460354400001,74.5787328,90.47736672,27.22298221614227,set #1
1970-01-01 00:00:16.050424325,3.828800916671753,0.07359535992145538,1.4446499347686768,1114.30071675,1113.5332747500001,1209.054873,1136.5306679999999,-357.44552999999996,2207.4769957500002,796.902834,592.4827935,27.359781121751027,set #1
1970-01-01 00:00:16.059628475,3.8281917572021484,0.08011762797832489,1.4433332681655884,-802.4603243206487,-678.0908996117992,-1047.577438514877,-958.3369448438897,96.85701819403639,1077.6948626497253,-270.0030386160772,-214.14384114768228,27.49658002735978,set #1
1970-01-01 00:00:16.069773424,3.827500104904175,0.086782306432724,1.4419587850570679,235.08655871999997,273.7072104,983.3177328,1076.1516667199999,-92.48148624,145.40226479999998,544.11878976,185.62838112,27.633378932968537,set #1
1970-01-01 00:00:16.080623138,3.8268134593963623,0.09342711418867111,1.44025719165802,805.49118,824.57406486,1010.4365637599999,954.3253551,-83.73323556,-948.9282862800001,435.2270247,327.93326202000003,27.77017783857729,set #1
1970-01-01 00:00:16.089727390,3.8258869647979736,0.1004030704498291,1.4387365579605103,-826.7597247,-697.101327,-563.5490484,-575.2631352000001,63.66575280000001,-502.7518392,-55.1588115,-160.0824225,27.906976744186046,set #1
1970-01-01 00:00:16.099708307,3.8249218463897705,0.10733873397111893,1.4371000528335571,175.7610042479915,208.7306374087252,-11.395096269807453,-2.488569812860373,-7.084678640642719,597.0073139253722,106.72534028931943,136.2527853444293,28.043775649794803,set #1
1970-01-01 00:00:16.109671581,3.8238909244537354,0.11430567502975464,1.4354805946350098,221.07518706,356.11183686,159.03129255,208.08137688,-145.67600736,371.07191199,154.963341,98.67476541,28.180574555403556,set #1
1970-01-01 00:00:16.119954336,3.8227663040161133,0.12134137749671936,1.4339030981063843,-320.81108116783764,-392.26832945334104,1183.7040160619679,1023.6995481409036,-14.762980554038892,-1304.3419623260754,183.1886556126888,33.393037763924475,28.317373461012313,set #1
1970-01-01 00:00:16.129867303,3.8215794563293457,0.12837696075439453,1.4323524236679077,75.5747528495057,250.13739962479923,661.1137577175155,655.3796912993827,-64.18231487462975,-605.3698226396453,299.5187730575461,218.46873451746904,28.454172366621066,set #1
1970-01-01 00:00:16.139747369,3.820363998413086,0.13537681102752686,1.4305579662322998,368.6013045,478.64909079,521.9018298,326.00075118,-191.49414726,-714.03476274,61.55845605,19.84902075,28.590971272229822,set #1
1970-01-01 00:00:16.155003536,3.819060802459717,0.1423588991165161,1.4289498329162598,817.61463888,842.86174752,15.810743519999999,47.15278464,-84.85671792000001,-3016.9503624,-1.53764832,112.60961712,28.727770177838575,set #1
1970-01-01 00:00:16.160494077,3.8176984786987305,0.1494063138961792,1.4274829626083374,-1202.4346683693366,-1343.1425537051075,-1264.6413383526767,-1134.8557980915962,-127.68111789223578,-3190.1759447518893,-646.0818667837336,-602.9947904295809,28.864569083447332,set #1
1970-01-01 00:00:16.170196760,3.816173791885376,0.15664392709732056,1.4261311292648315,-434.3320488,-28.577593199999995,-1152.55569,-967.1829491999999,-9.876360000000002,-1960.316904,-234.6301464,-84.13891199999999,29.00136798905609,set #1
1970-01-01 00:00:16.179926622,3.814605474472046,0.16385357081890106,1.4247586727142334,-174.86942772,-195.19751706,-224.6138037,-176.82032082,93.15477288,-2095.8460419000003,-187.32501762,-182.68026348,29.138166894664842,set #1
1970-01-01 00:00:16.189920890,3.8130075931549072,0.17101937532424927,1.423348307609558,617.074013991972,656.6664891070218,624.4191458117084,590.9063868672263,-80.5873258053484,-1294.8281934336133,292.7241458117084,292.7513868672263,29.2749658002736,set #1
1970-01-01 00:00:16.199887502,3.8112151622772217,0.17828527092933655,1.4220789670944214,-680.52147852,-322.42371564,-676.98189624,-644.57289,334.59572249999997,269.52878784,-182.70077046,-127.27689624000001,29.41176470588235,set #1
1970-01-01 00:00:16.209771621,3.809216260910034,0.18583878874778748,1.4209647178649902,502.9730045539909,-104.67180641638717,-83.909536500927,2.8496661906676195,-38.817120785758426,-332.773797512405,-117.6735696028608,-130.63159359681282,29.548563611491108,set #1
1970-01-01 00:00:16.220159280,3.8071796894073486,0.19334523379802704,1.4196923971176147,334.04401483197034,366.8802881494237,223.01950878098245,234.05022136955725,152.0471496457007,-520.2943121313757,104.13976948046104,-54.24719539560921,29.68536251709986,set #1
1970-01-01 00:00:16.229630220,3.8049099445343018,0.20106500387191772,1.4186131954193115,-754.1897922,-880.9633481999999,-634.173111,-564.2701194,-145.4273574,-376.870728,-57.485953200000004,32.671119,29.822161422708618,set #1
1970-01-01 00:00:16.239966381,3.8025405406951904,0.20873264968395233,1.4175077676773071,-672.8779935759871,-497.88223260446523,-633.3635458870917,-636.7834342568685,164.14588428176856,-1128.045446520893,-281.62099883199767,-313.3566715333431,29.958960328317374,set #1
1970-01-01 00:00:16.249743211,3.800065755844116,0.21640098094940186,1.4163522720336914,-1050.8477093400002,-579.4765653300001,-597.55639515,-664.2945192,-66.35778435,-1362.82043586,-326.05617408,-313.17948285,30.095759233926128,set #1
1970-01-01 00:00:16.259802806,3.797475814819336,0.22409602999687195,1.4151339530944824,-7.1198680800000105,103.4022639,509.46994332,310.11354738,436.80516983999996,932.62196274,4.087848959999999,55.15139604,30.232558139534884,set #1
1970-01-01 00:00:16.269845951,3.794820785522461,0.23175731301307678,1.414018154144287,118.65119408999996,247.40915082000004,145.89569592,150.38825958,337.39259580000004,6388.9800000000005,-103.51511001,-19.388733000000002,30.369357045143637,set #1
1970-01-01 00:00:16.279652584,3.792076349258423,0.2393222153186798,1.4129629135131836,902.6205217289565,494.3955621688757,508.60595360809276,433.6902909094182,400.3495282509435,5350.130593638813,52.982439625120755,152.19343367313266,30.506155950752394,set #1
1970-01-01 00:00:16.289879072,3.7892754077911377,0.24682168662548065,1.4118785858154297,-387.62997312,-363.25497312000005,-338.11038143999997,-371.51716992,-26.395649279999997,-779.3729673600001,-220.18561344,-64.00139616,30.64295485636115,set #1
1970-01-01 00:00:16.299942481,3.786417245864868,0.2542606294155121,1.4108210802078247,417.3585045629909,519.7012348575303,-73.73989461021078,-117.92704647590705,-566.6663402473196,-5018.021069707861,-162.51783817432366,-122.97946141107717,30.779753761969904,set #1
1970-01-01 00:00:16.309834230,3.7835474014282227,0.26163047552108765,1.4097877740859985,-14.146809903619804,-246.66510841021682,-179.80453376906752,-145.29478317956637,8.654098978197958,-3796.6422081744163,-173.4805432010864,-149.13869677739356,30.91655266757866,set #1
1970-01-01 00:00:16.319634664,3.7806971073150635,0.26877784729003906,1.4087027311325073,-535.9635372,-494.04642456,-529.98374832,-589.21094232,-11.439869999999999,-2862.31592088,-286.42207464,-126.08881896,31.053351573187413,set #1
1970-01-01 00:00:16.329694498,3.777737855911255,0.27584946155548096,1.4075731039047241,465.81675223350453,742.3070646041292,567.0721138142277,725.2626772153544,336.8611745823492,-1528.2475631151262,258.74985236970474,314.4026001952004,31.19015047879617,set #1
1970-01-01 00:00:16.339477289,3.7749078273773193,0.2825544774532318,1.4059370756149292,141.33715408569185,328.9689202721595,44.33753829492341,10.938834622330756,-342.7318246563507,-2538.593459053082,234.665415499169,257.61229451541095,31.326949384404923,set #1
1970-01-01 00:00:16.349841106,3.7717320919036865,0.28951266407966614,1.4047670364379883,297.3965829468341,436.3190658318684,463.8267622564755,396.1873532252936,1956.4400766198469,-815.1695590908819,200.54608491783017,152.14399737200526,31.46374829001368,set #1
1970-01-01 00:00:16.360411632,3.768677234649658,0.2959899604320526,1.403152346611023,-886.8050137900276,-487.7451521503043,-685.3883758067517,-605.8868595437191,244.23962959925925,-95.38447937895876,-193.0203708607417,-140.7398478496957,31.600547195622436,set #1
1970-01-01 00:00:16.369716394,3.7653450965881348,0.3026065528392792,1.4016458988189697,-389.3429979540041,-386.8622523054954,-1209.2742466715067,-1010.9471223757553,-109.28107654784691,-72.66835381329237,-310.76226766546466,-270.17029825940347,31.73734610123119,set #1
1970-01-01 00:00:16.379582870,3.7618772983551025,0.30929774045944214,1.400288701057434,476.13925582851164,849.354082458165,804.9346823193646,807.724096988194,-0.8724278448556895,219.46673403346807,370.67568638137277,349.6416978733958,31.874145006839946,set #1
1970-01-01 00:00:16.389875877,3.758281707763672,0.31607863306999207,1.399099588394165,-591.23516868,-213.02313474000002,-340.04474946,-347.60323338,-46.00527126,184.70025053999998,1.00940619,85.86313671,32.0109439124487,set #1
1970-01-01 00:00:16.400044668,3.7544212341308594,0.32295137643814087,1.3979970216751099,1143.7776871846256,938.0864345971307,666.9297206705587,790.2793233213534,-383.05419189161626,843.8015487769025,329.41002030995935,348.3334244031512,32.14774281805745,set #1
1970-01-01 00:00:16.409751165,3.7503819465637207,0.32985931634902954,1.3968168497085571,89.63115915,-2.994749550000023,465.54229215,483.13553925,-304.12059015,779.5731138,182.21997885000002,224.6011287,32.28454172366621,set #1
1970-01-01 00:00:16.420001495,3.746145009994507,0.33685076236724854,1.395627737045288,-592.3578472500001,-6.695623350000001,-564.31192545,-410.24819355,-342.43716975,1204.1165760000001,-280.4860578,-315.2963424,32.421340629274965,set #1
1970-01-01 00:00:16.429707515,3.74170184135437,0.3438381254673004,1.3944337368011475,-547.7961430500001,-198.37946700000003,337.03109115,331.68500040000004,-619.62789915,1409.16242025,0.9788298,12.07917555,32.55813953488372,set #1
1970-01-01 00:00:16.439591873,3.737062454223633,0.35077816247940063,1.3932222127914429,512.0352471695056,798.9457572884854,684.7992088115824,661.9056871486257,-1006.1463103673793,1022.8422967054065,197.43365909268184,285.346966976066,32.69493844049248,set #1
1970-01-01 00:00:16.450947511,3.7322685718536377,0.3576192259788513,1.3919548988342285,-310.99918278,-116.57256117,-1015.0395177,-826.46692362,-1188.06454026,853.85963403,-157.04143220999998,-114.47550114,32.83173734610123,set #1
1970-01-01 00:00:16.460314500,3.727337121963501,0.3644118309020996,1.390726923942566,-1058.84025,-910.42809,-1129.132875,-1148.036175,-337.01382,1226.729985,-366.377115,-231.02508,32.968536251709985,set #1
1970-01-01 00:00:16.469693172,3.7224154472351074,0.3710708022117615,1.3897193670272827,-1358.5070228740458,-1033.6654449608898,-1070.6300449300898,-916.0747661595324,-129.37413662827325,1062.6829452158904,-396.9982418564837,-398.67384432768864,33.10533515731874,set #1
1970-01-01 00:00:16.479861248,3.717444658279419,0.37759101390838623,1.3888906240463257,574.2653904,241.51117536,257.5684176,347.90945280000005,-364.7428512,827.1954412800001,46.21115616,28.881453120000003,33.2421340629275,set #1
1970-01-01 00:00:16.490299213,3.712415933609009,0.38403505086898804,1.3881245851516724,-167.48037856924287,-627.8294023411953,-215.02938299123403,-211.5701597196806,-23.258764902470197,999.5685059129881,-206.6660958078084,-243.56254999490002,33.378932968536255,set #1
1970-01-01 00:00:16.500579822,3.7074289321899414,0.3903544843196869,1.3873659372329712,1072.9107276785446,852.4984658630683,501.341927976144,562.7500768898462,9.714109151781697,1011.6241091517817,186.8052400595199,175.9423199553601,33.515731874145004,set #1
1970-01-01 00:00:16.509626377,3.7024428844451904,0.39655807614326477,1.3866931200027466,-1602.40450968,-1431.29164698,-1665.3732755400001,-1486.86461859,402.14334381000003,-120.86644713000001,-575.5973967900001,-483.95789793,33.65253077975376,set #1
1970-01-01 00:00:16.520134437,3.6974313259124756,0.40261098742485046,1.386086344718933,516.7094457688916,380.4826545753092,-214.85360473720948,-174.46742457484913,-2198.044270898542,508.25110846221696,7.435558701117401,153.68451895903792,33.78932968536252,set #1
1970-01-01 00:00:16.529647338,3.6923160552978516,0.40865358710289,1.3854343891143799,111.61397661204677,-9.565911398177207,-504.72651787696424,-352.2646984406031,-825.9024655450689,636.0729531340937,-51.27578392843215,46.682811864376276,33.926128590971274,set #1
1970-01-01 00:00:16.539727676,3.687159538269043,0.4146631956100464,1.3848055601119995,-756.8605168800001,-960.8120480399999,-341.71439172000004,-282.1420602,729.6828552000001,232.02649860000002,-218.99192016,-254.83374696,34.06292749658002,set #1
1970-01-01 00:00:16.549965131,3.6818697452545166,0.4206981062889099,1.384323000907898,-7.403152003695993,-55.702253625492745,56.83309614380771,136.09516091967816,-627.8237664624671,158.08648490703018,16.622795574408855,163.08213857572287,34.19972640218878,set #1
1970-01-01 00:00:16.559861171,3.6764891147613525,0.4266454577445984,1.384010910987854,2326.4062482524964,1869.559478468957,1670.498261896524,1749.9043426286853,-245.47485410970822,735.1161526123052,406.39974222948445,261.9309947419895,34.33652530779754,set #1
1970-01-01 00:00:16.569511878,3.6709530353546143,0.4325782358646393,1.3837308883666992,1259.7729814800002,1080.6800362800002,1077.79867104,918.42764364,-253.74557754,162.8071575,196.83844284,465.61242000000004,34.47332421340629,set #1
1970-01-01 00:00:16.579943883,3.665328025817871,0.43851786851882935,1.3834294080734253,-1390.1806082312164,-1491.8503452506905,-1003.993551477103,-891.6477310854622,-360.74212978425953,475.0871390242781,-570.5232931165863,-247.0318238036476,34.61012311901505,set #1
1970-01-01 00:00:16.590003479,3.6596567630767822,0.4444040060043335,1.383241891860962,398.07640876281755,679.47888001776,-344.0164202228405,-248.57051377102752,-297.77178406356813,26.871414492828986,-167.71997115994233,228.86118358236718,34.7469220246238,set #1
1970-01-01 00:00:16.600306022,3.653909921646118,0.4502023160457611,1.3831312656402588,-226.95504546,-506.4125157,-263.06041944000003,-69.11107086,-1.80716562,299.79200628,-335.1558834,-198.91863108,34.883720930232556,set #1
1970-01-01 00:00:16.609630096,3.6481213569641113,0.45592382550239563,1.3830374479293823,-412.03407647999995,-433.12118304,-1976.42294928,-1597.17483744,206.55457056,185.5074312,-585.25811136,-295.5823416,35.02051983584131,set #1
1970-01-01 00:00:16.619648683,3.642266035079956,0.46162915229797363,1.3829963207244873,20.84054860890278,256.2964351971296,-403.9586699526601,-197.2212175475649,238.9828047543905,182.02017192965616,18.46180452639095,141.16300656398687,35.15731874145007,set #1
1970-01-01 00:00:16.629510391,3.63643217086792,0.4672221541404724,1.3831093311309814,601.6537060574121,711.1509221418443,35.89242581485163,177.1484630969262,267.5242700985402,175.28569769139537,22.18995510991022,122.00969261938523,35.294117647058826,set #1
1970-01-01 00:00:16.639760721,3.63057804107666,0.47270631790161133,1.3832998275756836,503.0974338,152.25512016,669.54357717,720.11111172,234.78859520999998,144.28290864000002,223.05624548999998,207.65997447,35.430916552667576,set #1
1970-01-01 00:00:16.650303113,3.6246795654296875,0.47808149456977844,1.3834688663482666,-26.19464354071292,-200.60501652996695,-66.05077294845411,15.47495650008699,165.32036515926967,-7.633216833566333,-110.5325056549887,-29.294291431417136,35.56771545827633,set #1
1970-01-01 00:00:16.659982669,3.618760108947754,0.48341330885887146,1.3836228847503662,117.33423624000001,361.68985476,-295.36011375,-243.20048648999997,-224.70657729,25.11343185,-63.62576376,4.9486725599999986,35.70451436388509,set #1
1970-01-01 00:00:16.669846284,3.612818956375122,0.4886667728424072,1.3838138580322266,-1049.0735548799998,-921.0092658000001,-1614.2625408,-1508.9480484,-93.91555836,-90.70266504000001,-471.30964608,-240.19512815999997,35.841313269493845,set #1
1970-01-01 00:00:16.680221784,3.606874942779541,0.4937482476234436,1.384115219116211,124.18625070250141,130.83468993937987,302.3963243926488,343.7695844391689,152.9864222428445,69.89391841783683,-105.73813038626076,-155.97288636577272,35.9781121751026,set #1
1970-01-01 00:00:16.690438020,3.6009182929992676,0.4986934959888458,1.3844125270843506,-210.24992039999998,-433.5740838,-659.3123706,-572.0021736,635.845197,159.647085,-302.9888004,-181.65678179999998,36.11491108071135,set #1
1970-01-01 00:00:16.699975479,3.5949819087982178,0.5035322904586792,1.38472318649292,549.12658164,851.43022458,227.01811665,344.72952891,373.68036069,235.85974971,119.23391415,169.80585648000002,36.25170998632011,set #1
1970-01-01 00:00:16.710301626,3.589107036590576,0.5082466006278992,1.3850550651550293,376.44765911999997,851.4397554000001,-121.65875592,-13.053268019999999,625.1018280000001,275.70875592,27.81587718,146.1945108,36.388508891928865,set #1
1970-01-01 00:00:16.719688642,3.583264112472534,0.5127695798873901,1.3854246139526367,-167.6017022534045,-737.348439466879,-458.17512765025526,-393.32006455012913,459.18274536549075,150.93916852833706,-357.0986855573711,-278.9431380362761,36.52530779753762,set #1
1970-01-01 00:00:16.729742038,3.5774428844451904,0.5171453356742859,1.385816216468811,145.77180228,794.4548546999999,-231.49977006,-179.63348832,120.29514276,104.17099368000001,-181.82443968,-56.47544916,36.66210670314637,set #1
1970-01-01 00:00:16.739745367,3.5716781616210938,0.5214234590530396,1.3862463235855103,405.3180368460737,33.593836487672974,-4.4236942173884355,88.95974692949386,282.4143216486433,65.00365378730757,46.121174002348006,173.6601467502935,36.79890560875513,set #1
1970-01-01 00:00:16.749866712,3.565934419631958,0.5256040096282959,1.3867838382720947,419.47191936,760.96784088,11.533245360000002,99.47851056,63.113297519999996,123.00806856,74.29340880000001,208.63574472,36.935704514363884,set #1
1970-01-01 00:00:16.759906280,3.5600528717041016,0.5297092795372009,1.3874269723892212,-530.0038224,-524.8337951999999,-724.0716288000001,-616.9324044,94.94050800000001,200.75484,-184.6239564,4.037701200000001,37.07250341997264,set #1
1970-01-01 00:00:16.769870746,3.5541470050811768,0.5336607098579407,1.3879872560501099,375.60625752,661.8053886600001,12.455784120000004,106.77478344000002,124.01758278000001,314.36527044,58.172934299999994,156.88530078,37.2093023255814,set #1
1970-01-01 00:00:16.779623258,3.548139810562134,0.5375352501869202,1.3885153532028198,51.56881608236784,201.7739662620675,-53.28414068171863,62.05510808978383,908.1453727492545,486.20480167039665,96.94759613480772,224.6299579100842,37.34610123119015,set #1
1970-01-01 00:00:16.790026414,3.542187452316284,0.5412431359291077,1.3891394138336182,-298.37660189999997,-370.09080342000004,-657.8385801,-476.48191734,1443.07115628,637.15396134,153.15813942,-37.55281452,37.482900136798904,set #1
1970-01-01 00:00:16.800047386,3.5362725257873535,0.5447677969932556,1.3898404836654663,115.52476806,50.50821126,-89.2136895,38.05376562,1101.56510412,218.23306908,71.84285940000001,62.0826648,37.61969904240766,set #1
1970-01-01 00:00:16.809520471,3.5302700996398926,0.5481609106063843,1.3905969858169556,-214.0591341482683,243.82503069006137,-255.26899166798336,4.030916631833263,-40.01710799421599,203.91171087342175,117.64526487052974,52.32026487052974,37.75649794801642,set #1
1970-01-01 00:00:16.821040857,3.524286985397339,0.5514280796051025,1.3912770748138428,-1468.61174889,-1375.21423026,-1760.18076234,-1244.60688339,363.49758588,29.32209267,-295.24661439,-242.8719657,37.89329685362517,set #1
1970-01-01 00:00:16.829685676,3.5184717178344727,0.5545408129692078,1.3919671773910522,-89.25206772413544,95.39896205792411,-423.620170510341,-37.71930763861528,-79.28793155586311,27.678103026206053,30.166032662065327,40.956721663443325,38.03009575923392,set #1
1970-01-01 00:00:16.839794385,3.512862205505371,0.5574731826782227,1.39264976978302,9.023915550000005,589.81024635,368.94094185,436.2919587,1.290958499999995,26.00601315,99.9177894,16.97740785,38.16689466484268,set #1
1970-01-01 00:00:16.850796688,3.5074756145477295,0.5601760149002075,1.3932838439941406,797.55320112,991.98806304,531.34514784,464.65048032000004,-189.02962416,-101.26491648,276.94732416,300.44544816,38.303693570451436,set #1
1970-01-01 00:00:16.860019433,3.501957654953003,0.5628669261932373,1.3937774896621704,713.8557784015568,1038.2688187776375,591.5661662323325,519.1232658965318,-1063.0412989925978,-273.15933208866414,343.0019728139456,209.16233700467401,38.44049247606019,set #1
1970-01-01 00:00:16.869864690,3.4966256618499756,0.565435528755188,1.3941435813903809,-490.66921634156733,-11.672940684118643,20.665478739042523,40.17904252191496,-569.5558612382775,-428.6346081707837,4.913689482621035,35.40958411083178,38.57729138166895,set #1
1970-01-01 00:00:16.880014646,3.4913339614868164,0.567875325679779,1.394433617591858,-176.85040193919613,30.8150286499427,171.2360226979546,67.16417119165762,-519.0198898402203,-266.2305608488783,238.27935653128696,300.5921094157812,38.7140902872777,set #1
1970-01-01 00:00:16.889831293,3.4859390258789062,0.5702053308486938,1.3946386575698853,804.3069937500001,1112.61347613,563.84334747,634.55300298,-255.89133414000003,-184.98442989,354.31888635,253.05659379000002,38.850889192886456,set #1
1970-01-01 00:00:16.900632369,3.4803738594055176,0.5725429058074951,1.3947992324829102,-119.56640085000001,395.88863769,-306.58353531,-336.25738341000005,199.70192658,-166.55863263,-167.14491027,-179.32623657000002,38.98768809849521,set #1
1970-01-01 00:00:16.909461009,3.474799633026123,0.5748238563537598,1.394894003868103,-467.02676201647597,-711.3680437339126,-337.7551818896362,-249.05880822238356,-175.38012671974656,-264.31265739468523,-139.30960547078905,-157.03224447551105,39.12448700410397,set #1
1970-01-01 00:00:16.919785249,3.4691836833953857,0.5770516991615295,1.3950139284133911,-1737.1466619,-974.5641894299999,-1726.48681218,-1628.7435434400002,438.76696383,-195.17975724000001,-648.1795491600001,-563.1595491600001,39.26128590971272,set #1
1970-01-01 00:00:16.930125701,3.4636569023132324,0.5792142748832703,1.3947290182113647,-116.05672461344923,-310.90507398014796,-158.24174866349733,-125.15807102614205,84.87272517545036,-145.5004263008526,80.21152672305345,38.9695736991474,39.398084815321475,set #1
1970-01-01 00:00:16.940052736,3.458033561706543,0.5812467336654663,1.394592046737671,-146.27691936000002,-319.5661872,-357.7784496,-306.877584,-154.3905168,-246.99340224,-179.4960336,-42.6981984,39.53488372093023,set #1
1970-01-01 00:00:16.949992883,3.452467203140259,0.5831508636474609,1.3944910764694214,-143.50551188999998,-229.76767826999998,-113.47198239,-112.36097652000001,-550.18382016,-369.29114118,-108.40268828999999,-257.96354883000004,39.67168262653899,set #1
1970-01-01 00:00:16.959594715,3.44709849357605,0.5849430561065674,1.3943593502044678,153.53227954544093,503.015817498365,-92.61488654022692,-111.73344156311687,-475.03614011771975,-521.4480799738401,-181.29167327665346,-55.57422078155844,39.808481532147745,set #1
1970-01-01 00:00:16.969830978,3.4419748783111572,0.5865955948829651,1.3942877054214478,110.96797142594286,134.0464438628877,167.81941082882167,184.44104439208877,-1088.781222942446,-438.4593796087592,131.87705087410174,75.29419213838428,39.945280437756495,set #1
1970-01-01 00:00:16.979807365,3.4369473457336426,0.5882728695869446,1.394146203994751,-148.96850475,-76.12135635,-293.09181915,-325.87390485000003,-338.8890609,-392.23672215,54.3065796,128.89104735,40.08207934336525,set #1
1970-01-01 00:00:16.989988315,3.432307243347168,0.5898692011833191,1.393974781036377,-618.1872466344934,-677.9438252476505,-1.9883362966725926,-32.259696469392935,68.17773558547117,-302.0358318516637,36.01843662687325,-37.40919227838456,40.21887824897401,set #1
1970-01-01 00:00:16.999663103,3.4279160499572754,0.5914462804794312,1.3938038349151611,-628.18881255,-1379.97518529,-505.36510089,-499.53284667,161.46599976000002,-338.66069484,-169.67054208,-135.38186415,40.355677154582764,set #1
1970-01-01 00:00:17.009763944,3.423731803894043,0.5929439067840576,1.3936371803283691,-47.13520968,557.6258656800001,-232.03252488,-266.34824736,38.27788536,-218.64200904,143.2628808,157.93411608,40.49247606019152,set #1
1970-01-01 00:00:17.020220506,3.4196455478668213,0.5944141745567322,1.3933199644088745,-59.13089568179136,-660.780933001866,-419.95353527707056,-369.30833623667246,104.23900248800497,-208.02501244002488,-78.7431519463039,-79.5730151060302,40.62927496580027,set #1
1970-01-01 00:00:17.029782283,3.4155611991882324,0.5958721041679382,1.3930450677871704,974.499909460181,1090.2787840724318,787.1692460715078,683.2764689470622,-6.96426638146724,-98.17927568144864,251.38018107963785,204.9362472475055,40.76607387140903,set #1
1970-01-01 00:00:17.039950836,3.4115161895751953,0.5972214341163635,1.3929110765457153,-410.66309076,-451.91436576,-28.94570016,-43.91295948,76.82728092,-181.64164667999998,-114.03533388,-191.1117234,40.902872777017784,set #1
1970-01-01 00:00:17.049797761,3.4073727130889893,0.5984089374542236,1.3929110765457153,-172.78011228977545,99.24781621436757,-291.3261214577571,-308.3091792016416,-159.4896104507791,-161.76646333707333,75.16062510874977,170.8837988024024,41.03967168262654,set #1
1970-01-01 00:00:17.059760797,3.4031267166137695,0.5996708273887634,1.3927931785583496,-215.18998430996862,-491.2807986015972,-169.7750385400771,-193.8027951055902,-2.987852915705833,-137.66157793315585,-74.47963923927848,-131.76300528601058,41.1764705882353,set #1
1970-01-01 00:00:17.069893825,3.3986399173736572,0.6009135842323303,1.392848253250122,-606.3061095,-648.3362730000001,-490.982973,-504.402717,139.6793385,-96.04161450000001,-266.60285925000005,-150.1035705,41.31326949384405,set #1
1970-01-01 00:00:17.079863298,3.3941705226898193,0.6020613312721252,1.3930258750915527,45.85861104722209,39.91936560873121,-321.60976195952395,-297.9518852537705,245.67972151944304,14.345972381944765,53.34307545615091,98.28144846289692,41.4500683994528,set #1
1970-01-01 00:00:17.089702594,3.389617443084717,0.6031321883201599,1.3933484554290771,-272.23623258000003,-308.65308162,-27.619536359999998,-19.33883952,237.49831482,39.71773182,56.6893587,51.32425038000001,41.58686730506156,set #1
1970-01-01 00:00:17.099845159,3.3850209712982178,0.6041106581687927,1.3936131000518799,599.2734492431016,586.5883646432708,359.03497921004157,356.66730642538715,-48.6709728980542,48.863152423695155,299.0517844864311,273.9231667636665,41.723666210670316,set #1
1970-01-01 00:00:17.109654653,3.3805148601531982,0.6050350069999695,1.3938982486724854,-1205.68887582,-1355.54087019,-648.4657335,-610.16192055,244.38765623999998,20.736712230000002,-385.00898436,-355.62199218,41.860465116279066,set #1
1970-01-01 00:00:17.119745243,3.376009941101074,0.6058894395828247,1.3943016529083252,-198.18092411815178,202.5160286979426,-138.79384593230813,-109.95981637036726,-50.45098237803524,42.79033143933712,117.14921916156167,147.86357419285162,41.99726402188782,set #1
1970-01-01 00:00:17.129791248,3.3717031478881836,0.6066815853118896,1.3947912454605103,48.44641520283041,65.93196523393048,37.09217819435639,47.74891713783428,-8.618911547823096,14.888805497610996,8.552828255656511,-47.24543237086475,42.13406292749658,set #1
1970-01-01 00:00:17.139659870,3.3675122261047363,0.6074364185333252,1.3952924013137817,305.77878630000004,571.7687001,141.1704333,141.0641739,93.3719241,37.8563913,23.6971098,84.2329683,42.270861833105336,set #1
1970-01-01 00:00:17.149992692,3.3634815216064453,0.6081897616386414,1.395836591720581,-177.6625122050244,144.74414497828997,-224.27930153860308,-231.95391316782633,-14.927462374924751,31.80779788559577,114.62499898999798,104.7992740985482,42.40766073871409,set #1
1970-01-01 00:00:17.159939992,3.3597707748413086,0.6088710427284241,1.396457552909851,34.35513120000002,-67.56012744000003,-90.84815688,-79.08548856,-163.9162356,-16.66114944,-76.65156408,-13.596666720000002,42.54445964432284,set #1
1970-01-01 00:00:17.169751871,3.3561818599700928,0.6095433831214905,1.3970317840576172,-532.52783298,-354.11652432,-729.72502512,-656.45610342,-138.9567504,0.68322969,-160.18739217,-168.00681534,42.6812585499316,set #1
1970-01-01 00:00:17.180011260,3.352916955947876,0.6101899147033691,1.397452712059021,534.7714398,186.81606060000001,189.2124234,143.0888082,29.422208400000002,43.5658236,-91.26344759999999,-75.8496648,42.818057455540355,set #1
1970-01-01 00:00:17.190217483,3.3497631549835205,0.610869824886322,1.3978476524353027,224.75744967,461.14260309,85.58292678,55.52262846,-586.48011669,62.174198190000006,125.7954282,55.68024657,42.95485636114911,set #1
1970-01-01 00:00:17.200448978,3.3468003273010254,0.6114819049835205,1.3982486724853516,1197.95756574,1173.4154055,1195.74006084,1073.2442799,-1237.5857403,-29.27783976,485.0526876,412.21831638000003,43.09165526675787,set #1
1970-01-01 00:00:17.209816682,3.3438239097595215,0.6120667457580566,1.3986021280288696,396.434103,594.1196016600001,178.18014084,203.10117672,-813.4944222600001,87.19181328,92.75101758,74.62978302,43.22845417236662,set #1
1970-01-01 00:00:17.219979751,3.340902805328369,0.612619936466217,1.3989367485046387,-170.93053185,-317.83230882000004,-182.90695839,-187.60275260999998,192.97649826,188.66035149,-225.10110168,-183.02055954,43.365253077975375,set #1
1970-01-01 00:00:17.229636419,3.3380870819091797,0.613180935382843,1.3992313146591187,-138.80366019000002,-629.5573814400001,-515.68973196,-574.9310170499999,822.87791118,205.19320341,-302.90839215,-231.34267961999998,43.50205198358413,set #1
1970-01-01 00:00:17.239766824,3.335399627685547,0.6136841773986816,1.3995720148086548,529.68721728,596.238864,257.00400336,162.71562528,92.42676456000001,79.7669652,205.68239640000002,211.56624216,43.63885088919289,set #1
1970-01-01 00:00:17.249872434,3.332810640335083,0.6141110062599182,1.39993155002594,678.0390107400001,750.42232746,314.6968266,329.61918834,547.7601456599999,194.05187568,329.72441034,387.95850210000003,43.77564979480164,set #1
1970-01-01 00:00:17.259607542,3.3302791118621826,0.614585280418396,1.400229573249817,242.19816894,229.19254487999999,127.80941706,82.66419642,124.5205689,104.41760004,119.61941706,214.21130328,43.912448700410394,set #1
1970-01-01 00:00:17.269817817,3.3278186321258545,0.615058183670044,1.4004814624786377,-385.39074327000003,-185.22621585000002,-244.58259266999997,-239.91761664000003,537.18806505,184.2593493,55.69675332000001,4.338198539999993,44.04924760601915,set #1
1970-01-01 00:00:17.279675472,3.32539701461792,0.6154759526252747,1.4007593393325806,892.31563824,594.64849392,701.29214688,682.5478608,142.5486816,154.11843408000001,258.32423136,284.07307968000003,44.18604651162791,set #1
1970-01-01 00:00:17.289794672,3.3228859901428223,0.6158117055892944,1.4010086059570312,-497.82446688,-808.2649598400001,-225.432012,-267.95607696,537.9842208,198.01914288,-33.672025919999996,-39.60641568,44.322845417236664,set #1
1970-01-01 00:00:17.299786079,3.3202686309814453,0.6160671710968018,1.4012128114700317,-299.70577611,-555.02104203,-158.0441187,-192.30783546,132.23793453,191.16524427,-57.57405069,-8.780711159999996,44.45964432284541,set #1
1970-01-01 00:00:17.309467781,3.317578077316284,0.6162559390068054,1.4014630317687988,-549.62497785,-645.7506252600001,-670.66036362,-579.60188247,-217.5298671,186.15612639,-111.97978935,-82.95643902,44.59644322845417,set #1
1970-01-01 00:00:17.319734561,3.3148694038391113,0.6163884997367859,1.4017852544784546,147.97490019000003,-156.19803965999998,495.26902815,387.86944053,-334.1963352,163.444242,22.080489209999996,99.24049512,44.73324213406293,set #1
1970-01-01 00:00:17.329743612,3.3121824264526367,0.6164243221282959,1.402121663093567,-446.99954832,-532.86374076,-178.30618884,-251.25021636000002,27.073506719999997,111.04899312,26.602673760000002,25.683159840000002,44.87004103967168,set #1
1970-01-01 00:00:17.339523303,3.309544324874878,0.6164829730987549,1.4023478031158447,-268.09162068,-577.91897241,-404.63075484,-388.81283064,305.67446559,29.76802569,-187.86935934,-193.23768633,45.00683994528044,set #1
1970-01-01 00:00:17.350265491,3.3071486949920654,0.6165855526924133,1.4025681018829346,784.44434523,792.19061961,790.85440278,768.705639,319.78586796,187.13289582,395.62174197,422.32465899,45.14363885088919,set #1
1970-01-01 00:00:17.360074031,3.3050262928009033,0.6167234778404236,1.4028412103652954,680.1695249700001,544.55171121,346.46088438,308.07294219000005,471.08054721,241.42556997,283.30401255000004,257.38458252,45.280437756497946,set #1
1970-01-01 00:00:17.369653690,3.3032209873199463,0.6168429255485535,1.4031540155410767,139.76465100000001,164.69018670000003,113.5470024,45.6207297,493.2462366,183.79786230000002,44.433452700000004,139.2162603,45.4172366621067,set #1
1970-01-01 00:00:17.379695165,3.3016324043273926,0.6170451641082764,1.4035756587982178,-7.294409849999994,-99.8892999,-376.87708499999997,-299.1751074,450.896121,92.99545515,-75.1964304,-113.43391019999999,45.55403556771546,set #1
1970-01-01 00:00:17.389791477,3.3005311489105225,0.6172628402709961,1.4039467573165894,-415.76362737,-1062.32296443,-242.82589890000003,-293.74614984,311.47970412,37.505591759999994,-137.41803933,-135.54339513,45.690834473324216,set #1
1970-01-01 00:00:17.399974811,3.299696207046509,0.6175147891044617,1.4044249057769775,-112.38825741,-341.92585323000003,-162.03074082,-148.13367387,392.04479301,125.01464742,24.07636179,-97.67240418,45.827633378932966,set #1
1970-01-01 00:00:17.409738529,3.299006223678589,0.6177256107330322,1.4049201011657715,678.8454047700001,475.90264332000004,664.86027036,578.5914540900001,51.63934269,135.57513177,235.68974129999998,184.13105724,45.96443228454172,set #1
1970-01-01 00:00:17.419948089,3.2985341548919678,0.617928147315979,1.4053003787994385,-646.55325969,-757.0043527800001,-675.64185702,-653.07936681,331.28486664,76.23532176,-336.47222349,-385.9211304,46.10123119015048,set #1
1970-01-01 00:00:17.429450500,3.298232316970825,0.6181144118309021,1.4056086540222168,968.268015,722.64699,1067.576055,1044.30807,237.519555,219.48322499999998,445.988205,399.51054000000005,46.238030095759235,set #1
1970-01-01 00:00:17.439947116,3.2980353832244873,0.6182751059532166,1.4059522151947021,-184.05930036,-277.74738576,133.08756240000002,81.0694482,393.73313148,166.21312188,14.240661240000001,-30.909332999999993,46.374829001367985,set #1
1970-01-01 00:00:17.449779975,3.297856569290161,0.6183647513389587,1.406286597251892,98.11713600000003,138.88341674999995,209.9081595,62.851854,738.480912,173.61194175000003,147.96156374999998,102.78423675,46.51162790697674,set #1
1970-01-01 00:00:17.459470022,3.2977359294891357,0.6184260845184326,1.4066317081451416,474.99747516,692.2989106800001,522.9632920199999,465.07875414,46.374496740000005,146.38943904,185.41571802,147.12471150000002,46.6484268125855,set #1
1970-01-01 00:00:17.470038640,3.2976462841033936,0.6184645891189575,1.4069713354110718,1025.5091808,780.947544,690.304212,665.8906488,-86.60199600000001,96.5454984,351.81013920000004,347.4306264,46.785225718194255,set #1
1970-01-01 00:00:17.479730594,3.2976322174072266,0.6184399724006653,1.407373070716858,-18.287188140000005,134.29991796000002,260.46847164,174.41025966,161.86250496,114.7428243,131.21371146,100.06715082,46.92202462380301,set #1
1970-01-01 00:00:17.489942777,3.297576427459717,0.6183488965034485,1.40776789188385,90.97310625000001,100.60129287000001,620.34586965,542.62537875,295.8669636,190.27903089,262.6086606,296.61255819,47.05882352941176,set #1
1970-01-01 00:00:17.500275123,3.297498941421509,0.6182200312614441,1.4081498384475708,114.26219259000001,-156.80932215,-18.13581588000001,-42.761041829999996,61.19080812000001,138.88946955,154.23664113,125.88133857,47.19562243502052,set #1
1970-01-01 00:00:17.509698141,3.2974584102630615,0.6180569529533386,1.4084833860397339,-559.71410196,-787.77957687,-894.95309436,-827.1842950800001,241.79942553,83.67369972,-161.56322481,-161.70995022,47.332421340629274,set #1
1970-01-01 00:00:17.519583929,3.29746150970459,0.6178495287895203,1.408888339996338,697.10604756,781.08909099,825.2542662,717.6080172300001,157.20826095,141.16678173000003,333.55045151999997,289.94774055,47.46922024623803,set #1
1970-01-01 00:00:17.529991376,3.2974772453308105,0.6175907850265503,1.4093434810638428,827.7291859200001,289.1156424,539.8617993600001,587.86864656,40.27060128,103.50807791999999,292.00618512,167.54565983999998,47.60601915184679,set #1
1970-01-01 00:00:17.539862382,3.2975406646728516,0.6173002123832703,1.4097414016723633,136.03070442,27.42547313999998,-286.24612068,-313.00063002,63.199825260000004,32.30924814,-182.12277798,-274.01252736000004,47.74281805745554,set #1
1970-01-01 00:00:17.549655902,3.2977206707000732,0.6170108914375305,1.4101132154464722,260.27766102,34.16104536,150.00407526,118.50614646000001,2.80773948,34.34692638,-103.19625888,-169.02634788,47.879616963064294,set #1
1970-01-01 00:00:17.560311544,3.2981059551239014,0.6167106032371521,1.4104704856872559,-334.77195960000006,-453.22407312,-621.21518784,-621.49561656,-82.38251736000001,-11.92944168,-121.72282824000001,-123.90226992000001,48.01641586867305,set #1
1970-01-01 00:00:17.569951284,3.2986531257629395,0.616375744342804,1.4109033346176147,410.51712312,519.72271728,163.43327208,96.97332528,117.14109576,59.34200532,121.10428044000001,95.21626296,48.15321477428181,set #1
1970-01-01 00:00:17.579657304,3.299422025680542,0.6160816550254822,1.4113177061080933,-292.19767824,-210.74253720000002,-282.8990268,-311.68670208,33.119424,37.323879840000004,-111.57284111999999,-171.54956208,48.29001367989056,set #1
1970-01-01 00:00:17.589901435,3.3004260063171387,0.6158201098442078,1.4117209911346436,362.73976830000004,336.46881255000005,239.89918290000003,224.64161264999998,-186.41426115000002,19.705457850000002,130.72614555,276.47921925,48.42681258549931,set #1
1970-01-01 00:00:17.599943387,3.30159854888916,0.6155680418014526,1.4121547937393188,-217.53234399000002,-1155.5208834,158.18459553,180.5543025,132.08161863,55.166632560000004,45.95100471,-236.99066508,48.56361149110807,set #1
1970-01-01 00:00:17.610222328,3.3031225204467773,0.6152796149253845,1.4126113653182983,-102.14695608,-242.94549552,-34.76472792,-41.82826752,76.199604,10.66024752,35.01440592,220.3518564,48.700410396716826,set #1
1970-01-01 00:00:17.619836318,3.3046109676361084,0.6150516271591187,1.413002848625183,-613.90706286,-786.30954948,-278.73796236,-270.25574004,162.7212171,-15.360158579999998,-100.09841244,-362.41936458000004,48.83720930232558,set #1
1970-01-01 00:00:17.629977930,3.3064348697662354,0.6147810816764832,1.4133623838424683,-260.79691560000003,-8.148145199999988,-30.9005229,-14.730065999999994,105.3391794,-65.6980818,-124.973628,-136.72823970000002,48.97400820793433,set #1
1970-01-01 00:00:17.639489877,3.308495283126831,0.6144468784332275,1.4137890338897705,279.19067163,549.70939374,25.08028575,57.010511609999995,-245.77431099,-81.63788450999999,81.21814739999999,-7.05128658000001,49.11080711354309,set #1
1970-01-01 00:00:17.649629104,3.3105363845825195,0.6140859127044678,1.414272665977478,-156.65992992000002,-689.8167369600001,-43.77413664000001,-88.3208352,44.273467679999996,-91.30861584,-158.142192,-143.57914896,49.247606019151846,set #1
1970-01-01 00:00:17.659694660,3.312653064727783,0.6136922836303711,1.41481614112854,49.431049200000004,190.0277418,365.11060560000004,304.3401114,-150.88986119999998,-95.4574374,201.8662152,47.804109600000004,49.3844049247606,set #1
1970-01-01 00:00:17.669955003,3.314889907836914,0.6133118867874146,1.4153778553009033,-59.22966738,-135.31280217,68.84458035,116.99203152000001,-79.17958035000001,-96.71214852,146.57003868,167.45847612,49.52120383036936,set #1
1970-01-01 00:00:17.679637659,3.3172149658203125,0.612912654876709,1.416080117225647,1120.773186,1520.2676541,583.20788916,658.43283597,66.26358062999999,-28.46076987,311.11570269000003,231.83773236000002,49.65800273597811,set #1
1970-01-01 00:00:17.689661491,3.3195838928222656,0.6124645471572876,1.4169028997421265,322.72379685,187.96419993,107.57338917,145.13329662,-19.82338917,-150.24568533000001,-8.09188848,-109.64329662,49.794801641586865,set #1
1970-01-01 00:00:17.700069654,3.321953535079956,0.6119811534881592,1.4178059101104736,-402.52167618,-290.18455439999997,-317.0513073,-246.34001574,4.196736179999999,-88.6133976,53.42533248,17.03023608,49.93160054719562,set #1
1970-01-01 00:00:17.709866989,3.3243472576141357,0.6114459037780762,1.4187654256820679,982.58606784,848.76537681,469.25929011,453.66801597,-85.11879402000001,-80.20112646,431.11242525,345.07923138,50.06839945280438,set #1
1970-01-01 00:00:17.719713438,3.3268091678619385,0.6108967661857605,1.4198148250579834,-206.60487588,-68.35240776,266.60361702,260.85768618000003,-33.58546542,-134.86601622,38.0123913,-97.49947037999999,50.205198358413135,set #1
1970-01-01 00:00:17.729847896,3.329244375228882,0.6103358864784241,1.4210307598114014,-20.187282959999997,-89.74735224,-94.76623728,2.7754178399999994,-68.81169048,-164.96054016000002,80.88141048,-103.7059764,50.341997264021884,set #1
1970-01-01 00:00:17.740113008,3.331681489944458,0.6096663475036621,1.4221972227096558,-93.1307208,-254.43313584,-314.68401120000004,-288.78515952000004,267.0152472,-194.64202368,-246.41657039999998,-220.44003072,50.47879616963064,set #1
1970-01-01 00:00:17.749844778,3.3341064453125,0.6090043187141418,1.4235894680023193,1165.99862496,1240.0567717200001,704.87599494,770.17726422,-56.232244380000004,-206.81882988,241.877922,113.67784818000001,50.6155950752394,set #1
1970-01-01 00:00:17.759790409,3.336646556854248,0.6082907915115356,1.4250954389572144,-106.48814475,-276.44222502,-151.43127402,-97.93510155,74.44500258,-249.14971341,-88.04164668,-125.70332463,50.752393980848154,set #1
1970-01-01 00:00:17.769669998,3.3393619060516357,0.6074883937835693,1.4266679286956787,-472.91869326000005,-600.8932215,-601.06054788,-574.90318626,144.97086552,-254.0070078,-93.68598252,-99.09137627999999,50.88919288645691,set #1
1970-01-01 00:00:17.779540765,3.342165470123291,0.6066247224807739,1.4282712936401367,-117.61581585,191.4033459,159.11616825000002,188.71720919999999,-55.97727135,1199.455725,104.70950295,-14.3433459,51.02599179206566,set #1
1970-01-01 00:00:17.789853799,3.3451740741729736,0.6057689189910889,1.429888367652893,-62.43126162,-165.44378799,266.14884699,307.23353193,209.93403677999999,-147.30476787,181.82320923,124.29491256,51.16279069767442,set #1
1970-01-01 00:00:17.800154674,3.348407030105591,0.6048398017883301,1.4315778017044067,743.45798124,525.6860255400001,611.74603542,622.34631498,-92.06794038,-212.35368258,315.67525236,163.84892628,51.299589603283174,set #1
1970-01-01 00:00:17.809868085,3.3518588542938232,0.603857696056366,1.4333266019821167,195.85798245,453.87867135,-240.39021630000002,-324.10412385,89.50666335,-186.02585625,32.06546265,-39.219064949999996,51.43638850889193,set #1
1970-01-01 00:00:17.819844949,3.3554494380950928,0.6028347015380859,1.435067057609558,-95.93910105,-163.93973973,243.01811118,319.02871338000006,-183.68450724000002,-262.6846989,229.71823914,115.34775564,51.57318741450068,set #1
1970-01-01 00:00:17.829787004,3.3592910766601562,0.6018080711364746,1.4367800951004028,267.4138584,301.21080132,316.2772236,414.01938708,175.59506484,-170.4905514,240.20900748,-11.21919396,51.70998632010944,set #1
1970-01-01 00:00:17.839654672,3.3633370399475098,0.6006801724433899,1.4384479522705078,-216.47318784,143.89619711999998,-394.47344976,-332.34970704,-10.7304288,-327.23240784,-280.49815872,-349.08326544,51.84678522571819,set #1
1970-01-01 00:00:17.849539506,3.3675708770751953,0.5994831919670105,1.44016695022583,320.98250652,557.9238717000001,47.139440400000005,149.73400182,-12.19928814,-241.36859448,101.27530452,-101.68358538,51.98358413132695,set #1
1970-01-01 00:00:17.859908330,3.3719613552093506,0.5982050895690918,1.4417831897735596,150.5835279,42.4946145,126.53308590000002,210.5878788,56.384300700000004,-232.8171768,46.1925399,-196.01378160000002,52.120383036935706,set #1
1970-01-01 00:00:17.870064485,3.3765621185302734,0.5968126058578491,1.4432846307754517,-781.60766385,-298.8460371,-752.3835988500001,-779.7211344000001,114.75046830000001,-263.74716615,-257.57060355000004,-336.4322442,52.257181942544456,set #1
1970-01-01 00:00:17.880030382,3.3813226222991943,0.595348596572876,1.4448456764221191,-47.444914139999995,341.54617458,-49.90780392,2.1541470599999997,-22.4493672,-187.0320816,57.22945722,-201.56465706,52.39398084815321,set #1
1970-01-01 00:00:17.890011775,3.386246681213379,0.5937517881393433,1.4463731050491333,1035.00053475,1997.22807375,784.94760825,836.38874475,-79.03963275000001,-110.3198265,412.4640195,241.66732199999998,52.53077975376197,set #1
1970-01-01 00:00:17.900005567,3.391251564025879,0.59209805727005,1.447880744934082,-801.88832919,-479.82512213999996,-206.21326518,-301.54751991000006,13.39420836,-179.52729327,-243.45826517999998,-380.14675179,52.667578659370726,set #1
1970-01-01 00:00:17.909667480,3.396350860595703,0.5903911590576172,1.4493649005889893,-198.3612852,-229.8774036,-523.4887476,-581.310834,-360.00962400000003,-203.91956520000002,-292.75365600000003,-380.3511348,52.80437756497948,set #1
1970-01-01 00:00:17.919871557,3.401669502258301,0.5885916352272034,1.450831413269043,-798.58165725,-228.42619995,-876.5028441000001,-830.9461742400001,73.86915549000001,-117.3094338,-428.85300393,-540.51292074,52.94117647058823,set #1
1970-01-01 00:00:17.930065382,3.4069526195526123,0.5867482423782349,1.4522345066070557,555.8328009,607.2297348000001,550.15686414,589.8453366,-102.98845206,15.589531619999999,78.24773970000001,-98.20176132,53.07797537619699,set #1
1970-01-01 00:00:17.939913022,3.412362813949585,0.5848032832145691,1.453517198562622,-111.08606184000001,79.25682648,493.19841324,416.6987136,-281.37044754,50.08979976,145.47795054,0.7121571600000001,53.214774281805745,set #1
1970-01-01 00:00:17.949921358,3.41774320602417,0.5828516483306885,1.4547276496887207,-284.38308132,-400.79438334,470.52243186,317.72153868000004,96.9376278,78.5433519,66.26932962,-125.76209567999999,53.3515731874145,set #1
1970-01-01 00:00:17.960092533,3.4232544898986816,0.5807608366012573,1.4558850526809692,-772.02289008,-162.21734568,-708.5123877,-628.63958352,76.34253197999999,24.02742693,-205.01146419,-339.38673639,53.48837209302326,set #1
1970-01-01 00:00:17.969890106,3.4294028282165527,0.5784328579902649,1.456860899925232,-1235.1816789,-1020.5269183199999,-447.8943261,-565.49848134,192.13673778,-37.73987256,-333.54605232,-489.81615852,53.62517099863201,set #1
1970-01-01 00:00:17.979908454,3.4347708225250244,0.5762606859207153,1.4581571817398071,20.43756857999999,506.33339484,344.46918558000004,385.44942384,-9.33258534,54.11928522,244.32962658,146.40665598,53.761969904240765,set #1
1970-01-01 00:00:17.990026939,3.4400992393493652,0.574066162109375,1.4593201875686646,-433.87038201,-797.4250771500001,115.30527099,133.44950697000002,322.53923598,39.49840986,-155.8360557,-447.11479488,53.89876880984952,set #1
1970-01-01 00:00:17.999929416,3.445615768432617,0.5717905759811401,1.4604926109313965,2.512564080000004,424.123596,100.48368408,119.65335096,303.95888640000004,85.28605488000001,61.4016624,-28.018448640000003,54.03556771545828,set #1
1970-01-01 00:00:18.010124671,3.451106309890747,0.569431483745575,1.4615979194641113,-611.58490926,97.18633665,9.430282680000012,-148.62311958,356.54954478,35.58519042,-260.28818283,-323.83970619,54.17236662106703,set #1
1970-01-01 00:00:18.019712675,3.4566640853881836,0.5670214891433716,1.46267831325531,243.232041,272.5924305,378.54034725,300.19371524999997,179.429718,77.59559925,89.31410475000001,-44.48500875,54.309165526675784,set #1
1970-01-01 00:00:18.029824483,3.4621706008911133,0.564603865146637,1.4636973142623901,962.42472144,1039.21658256,1014.27684813,1005.7629075,521.93260509,288.83990538,291.09662205,50.59436655000002,54.44596443228454,set #1
1970-01-01 00:00:18.040016162,3.46769642829895,0.5621189475059509,1.4646646976470947,-588.8634507600001,-422.00800278,115.12954986,223.17885798,757.1199012,283.52441988,9.98473788,-254.72759987999999,54.5827633378933,set #1
1970-01-01 00:00:18.049835908,3.473376989364624,0.5595477819442749,1.4655828475952148,77.7016422,106.10081820000002,-104.77759032,-4574.66191416,123.99061272,218.61682284,-21.79180224,-96.82161684,54.719562243502054,set #1
1970-01-01 00:00:18.059809196,3.479093313217163,0.5568512082099915,1.466491460800171,-151.38871488,396.15163068,113.33248524,606.0730696800001,199.86919992,239.6617626,-45.88244388,-288.95778288,54.8563611491108,set #1
1970-01-01 00:00:18.069749582,3.484825849533081,0.5541348457336426,1.4673210382461548,1043.67453216,1012.5438297000001,1184.46663738,-2413.8761595,144.77070894000002,228.17706132,277.67442924,-24.264975540000023,54.99316005471956,set #1
1970-01-01 00:00:18.079636800,3.49065899848938,0.5514143705368042,1.4682166576385498,-41.93436,122.125224,102.98745600000001,1645.546032,32.778408,243.304776,-44.171088000000005,-194.72263199999998,55.12995896032832,set #1
1970-01-01 00:00:18.089652526,3.49656081199646,0.5485564470291138,1.4690896272659302,-1375.5892846800002,-977.32481808,-798.3437069400001,3141.6212412,7.244930940000001,262.21122642,-275.1192132,-413.48573682,55.26675786593707,set #1
1970-01-01 00:00:18.100302684,3.5025787353515625,0.5455682873725891,1.4698946475982666,-122.60033136000001,363.47321244,110.7429492,3113.90658696,-195.07290504000002,398.63969808,18.02529456,-155.55087444,55.40355677154583,set #1
1970-01-01 00:00:18.109795082,3.50862979888916,0.5425177216529846,1.4706385135650635,76.81403262000002,-187.79458464,-2.2089272400000084,1226.31663726,-178.16606574000002,434.07959244,112.94336196,-83.30335962,55.54035567715458,set #1
1970-01-01 00:00:18.119760501,3.5148701667785645,0.5393781065940857,1.4713932275772095,595.45440708,785.4072521100001,437.01281169,2841.54488475,-169.47197592,495.36898086,133.99603581,-91.05508191,55.677154582763336,set #1
1970-01-01 00:00:18.129842269,3.521230936050415,0.5361101031303406,1.4721252918243408,-257.54515293000003,-157.45442076,-269.26270605,609.8013987,-347.91379077,439.01575653000003,11.299726620000008,-157.26587292,55.81395348837209,set #1
1970-01-01 00:00:18.139827478,3.5276641845703125,0.5327308177947998,1.4728955030441284,-387.75738690000003,-294.83071488,-78.86248812000002,1211.99837616,-579.08883552,446.60553756,29.919643260000008,-250.9894764,55.95075239398085,set #1
1970-01-01 00:00:18.149911630,3.5339839458465576,0.5293129682540894,1.473556637763977,-286.6130319,-177.5764224,-687.1769697,365.39410050000004,-387.5064336,455.78767650000003,-408.9655401,-500.1176817,56.087551299589606,set #1
1970-01-01 00:00:18.160009611,3.54056453704834,0.5257202982902527,1.4741706848144531,311.08710672,502.19398086,-93.53494527,470.46904242000005,-472.34274282,583.6839945300001,129.44670999000002,-116.06623119000001,56.224350205198355,set #1
1970-01-01 00:00:18.169783580,3.546998977661133,0.5223252773284912,1.4749141931533813,406.9333632,206.8312896,378.2827386,1103.1239856,-369.8394726,542.5510974,253.1682114,-105.7946604,56.36114911080711,set #1
1970-01-01 00:00:18.180064666,3.5538690090179443,0.5183944702148438,1.4755135774612427,-216.97599065999998,-299.22544314000004,-314.80399470000003,83.03655282000001,120.0016389,487.23972258000003,-451.61143014000004,-598.38296466,56.49794801641587,set #1
1970-01-01 00:00:18.190970886,3.5603549480438232,0.5147278308868408,1.476418137550354,-158.46538968000002,-123.96520188000001,384.91025820000004,711.0919436400001,26.86014318,515.2136901599999,249.3506925,-126.6093075,56.634746922024625,set #1
1970-01-01 00:00:18.199764478,3.5673224925994873,0.5105171203613281,1.4770419597625732,-508.14987365999997,-695.15256876,14.421033899999998,179.21042568000001,157.80923652,559.521963,300.76723014,-8.285106960000007,56.771545827633375,set #1
1970-01-01 00:00:18.209859598,3.574045419692993,0.5064970850944519,1.47797691822052,-307.18720188,-223.16889582,201.19018296000002,212.45440164,96.68989668,489.43040249999996,134.80304994,-129.03524322,56.90834473324213,set #1
1970-01-01 00:00:18.220018375,3.581298828125,0.5019372701644897,1.4785867929458618,-316.28429625,-64.72298625,-478.59971249999995,-446.75665125,119.33283375,404.77398,-101.76396749999999,-276.9373425,57.04514363885089,set #1
1970-01-01 00:00:18.229581821,3.5882933139801025,0.4975859522819519,1.4794502258300781,630.76045422,484.93968393,1236.20342313,1059.61176165,-210.55051641,434.11960449000003,556.36660794,269.12446977,57.181942544459645,set #1
1970-01-01 00:00:18.239884841,3.595642328262329,0.492911159992218,1.4803082942962646,766.45788531,581.76416805,578.6764974900001,531.4546497,-38.34377898,502.82872184999997,144.41643411,98.97408924,57.3187414500684,set #1
1970-01-01 00:00:18.250027883,3.6029303073883057,0.48810914158821106,1.481200933456421,-142.74443196,-111.57853239,50.618297729999995,-153.85097910000002,219.09321057,481.44634161,-275.75765802,-236.5198992,57.45554035567715,set #1
1970-01-01 00:00:18.259701955,3.6102497577667236,0.4831375777721405,1.482054352760315,-170.48409105,-329.47512195,-43.11557249999999,-335.1321363,224.15411849999998,492.50080425,-171.94173555,-345.6371763,57.59233926128591,set #1
1970-01-01 00:00:18.269833791,3.617426872253418,0.4780716598033905,1.4829257726669312,444.90703179,419.23664289,1258.88629503,873.97450101,-9.775196729999998,577.77375513,678.81859032,316.62216924,57.729138166894664,set #1
1970-01-01 00:00:18.280319917,3.6243557929992676,0.4729182720184326,1.4838753938674927,-620.15793879,-661.16749023,-191.14192032,-376.07813880000003,201.12850173,485.63592948,-40.22858151,-227.80223583,57.86593707250342,set #1
1970-01-01 00:00:18.289884078,3.6309776306152344,0.4677005112171173,1.4848535060882568,-306.62993946,-599.50520916,-785.06739402,-1085.1113465399999,208.23550878,518.389521,-212.72380194,-203.71131689999999,58.00273597811218,set #1
1970-01-01 00:00:18.300045240,3.637265205383301,0.4624609351158142,1.4858559370040894,285.57803040000005,220.0607916,-140.29828799999999,-470.9513952,-134.8157304,494.023218,-182.6493396,-151.8661872,58.13953488372093,set #1
1970-01-01 00:00:18.309617746,3.6431844234466553,0.45724979043006897,1.4867960214614868,-389.31577542,-349.37751263999996,-268.196175,-570.7238331599999,-1020.61392732,186.94907478,-230.00077776,-299.88867948000006,58.276333789329684,set #1
1970-01-01 00:00:18.319966543,3.6488027572631836,0.45202547311782837,1.4877501726150513,-953.51142198,-990.41285343,-485.03595036,-946.59805656,-1269.63050487,38.07719292,-304.49062605,-331.39191852,58.41313269493844,set #1
1970-01-01 00:00:18.329817283,3.654228687286377,0.44678354263305664,1.488742709159851,-247.02358629,-205.92821262,-347.6730816,-698.39660631,-1159.1137018499999,152.35569336,-99.53818563,-283.20219564,58.5499316005472,set #1
1970-01-01 00:00:18.339719284,3.659496784210205,0.4415203332901001,1.4897661209106445,-824.35940184,-627.6735784800001,-1553.7937895999999,-1976.5690183200002,-938.74761084,188.33509500000002,-695.19339552,-521.9136031200001,58.68673050615595,set #1
1970-01-01 00:00:18.350076187,3.664640188217163,0.4362429082393646,1.4907804727554321,20.10328827,-62.10532146,593.30073192,178.06585173,-585.33624318,383.43509489999997,24.982818509999998,-134.14644009,58.8235294117647,set #1
1970-01-01 00:00:18.359970319,3.6697371006011963,0.43095171451568604,1.491705060005188,-298.23126840000003,-461.96111208,-278.49705194999996,-772.41074001,-147.89719542,417.04620243000005,-369.02811504,-209.55911652,58.96032831737346,set #1
1970-01-01 00:00:18.369651306,3.6748199462890625,0.42553842067718506,1.4926155805587769,795.85197822,722.58320238,1584.56403612,1033.9181587799999,-150.92155416000003,673.14451308,622.4130822000001,361.13403612,59.097127222982216,set #1
1970-01-01 00:00:18.379804838,3.679935932159424,0.42001664638519287,1.4933974742889404,-321.92429646,-199.61844396,-270.6190617,-759.48973932,234.20251296,661.45511172,-168.01708872,-140.60387952000002,59.23392612859097,set #1
1970-01-01 00:00:18.389974105,3.6850457191467285,0.4144200384616852,1.4940110445022583,-1031.2546159499998,-696.5367435000001,-2323.0862928,-2697.0469578,322.18500405000003,953.2838055,-891.36208005,-689.0492076,59.37072503419972,set #1
1970-01-01 00:00:18.399703491,3.690171003341675,0.4086827039718628,1.4944908618927002,-430.99980378,-274.17465582,143.17031586000002,-304.37949789000004,942.29186727,1154.1206301299999,77.25342026999999,-130.82967417,59.50752393980848,set #1
1970-01-01 00:00:18.409825075,3.6952903270721436,0.40285176038742065,1.4948989152908325,-1124.0309144999999,-847.74784575,-421.39229925000006,-787.3168485000001,698.56877025,743.8072980000001,-301.04867325,-299.52205725,59.644322845417236,set #1
1970-01-01 00:00:18.420145738,3.7003824710845947,0.3968517482280731,1.4952685832977295,-289.87392174,-264.48995196,-1061.79108048,-1541.2472735400002,559.0573014,481.06678464000004,-688.44817392,-582.21801768,59.78112175102599,set #1
1970-01-01 00:00:18.429830778,3.7054638862609863,0.3906992971897125,1.4955955743789673,163.47276192,175.86373662000003,106.10943018,-468.85797816,403.0803933,417.60883242,-28.47476814000001,-140.89320726,59.91792065663475,set #1
1970-01-01 00:00:18.439730394,3.710561990737915,0.38437673449516296,1.4958549737930298,947.9729259,559.6400479800001,1072.08416874,343.63126667999995,592.4348781,381.73924386,311.62104791999997,171.24607265999998,60.0547195622435,set #1
1970-01-01 00:00:18.450011957,3.715665817260742,0.3778819143772125,1.4960734844207764,-1037.1965292,-785.1590721,-297.93202062000006,-767.84899308,888.47595876,216.39404123999998,-195.58632639,-147.14114766,60.191518467852255,set #1
1970-01-01 00:00:18.459842193,3.720747470855713,0.3712582290172577,1.4961791038513184,175.75325781,-27.870769680000002,213.02675471999999,-426.85698665999996,357.89427375,8.19455091,-11.02625862,-188.34861825000002,60.32831737346101,set #1
1970-01-01 00:00:18.469541538,3.725768804550171,0.3645079731941223,1.496188759803772,815.8317102,608.51798202,1627.79714136,780.61042488,-817.47239964,-242.15639604,365.69925834,326.46408912000004,60.46511627906977,set #1
1970-01-01 00:00:18.479612100,3.7307002544403076,0.3577127158641815,1.496111512184143,-993.392478,-921.397932,587.448966,-132.728388,-1227.800496,-533.2785120000001,-14.524419,-34.896029999999996,60.601915184678525,set #1
1970-01-01 00:00:18.489541757,3.7360308170318604,0.35023319721221924,1.4959439039230347,-510.96683196,-394.34519709,-996.36010071,-1602.16018014,-1184.9722832999998,-629.47374867,-484.46015787,-392.69447022,60.738714090287274,set #1
1970-01-01 00:00:18.500698554,3.740501642227173,0.34342625737190247,1.4964773654937744,255.4744959,319.58936802,660.5194377600001,31.785211379999996,-441.05138766,-374.3830818,260.18443776000004,216.55367682000002,60.87551299589603,set #1
1970-01-01 00:00:18.509589660,3.7447402477264404,0.3366316556930542,1.4967522621154785,-584.6882808,-694.5376776,49.71339359999999,-870.753273,-667.888806,-559.6601712,11.388569400000002,147.73689059999998,61.01231190150479,set #1
1970-01-01 00:00:18.519821393,3.748871326446533,0.3297707736492157,1.4968680143356323,-280.43326545,-211.07341905,-1224.17251554,-1618.5754423800001,-670.37061429,-739.57620594,-730.2361833,-587.72339652,61.149110807113544,set #1
1970-01-01 00:00:18.529989469,3.752775192260742,0.32300931215286255,1.4969533681869507,-261.48360420000006,-336.51342621000003,-155.47197861,-916.5955620899999,-693.01553841,-748.97839809,-199.04340105,-161.85410708999999,61.2859097127223,set #1
1970-01-01 00:00:18.539560783,3.7564914226531982,0.3162926435470581,1.49702787399292,-18.0886719,43.374499349999994,-844.0538882100001,-1429.87192881,-740.61080262,-860.19468795,6.932943420000001,-4.24647171,61.42270861833105,set #1
1970-01-01 00:00:18.550007808,3.760016918182373,0.30962279438972473,1.4970909357070923,-648.33158208,-576.06891264,-587.0877043200001,-1457.5828176,-475.16898624,-873.6819936,-589.85030208,-359.64067776,61.55950752393981,set #1
1970-01-01 00:00:18.559583652,3.7633893489837646,0.3029722273349762,1.4971448183059692,563.09252064,366.42029112,714.2933974800001,38.044582680000005,-223.12660656,-638.40483252,38.997951719999996,40.071755880000005,61.696306429548564,set #1
1970-01-01 00:00:18.569577920,3.7666730880737305,0.2962777614593506,1.4971591234207153,-789.7274112,-798.7908864000001,-165.7158048,-1078.1155632,-110.5065936,-885.6516864000001,-356.3360736,-285.348336,61.83310533515732,set #1
1970-01-01 00:00:18.579931486,3.7699244022369385,0.2894674241542816,1.4971420764923096,-772.02341034,-720.19331202,-1094.3557957799999,-1677.31316454,-441.9962391,-1102.77274068,-429.32978946000003,-206.8444092,61.96990424076607,set #1
1970-01-01 00:00:18.589887607,3.7731151580810547,0.28254202008247375,1.4971445798873901,1906.46514279,1229.95448043,1862.07437403,1102.02054456,-396.1883289,-1071.20967642,543.3382889999999,446.34846789,62.10670314637483,set #1
1970-01-01 00:00:18.600115287,3.7762579917907715,0.27557891607284546,1.497116208076477,820.3340106,334.09690392,1405.7421323400001,540.17535546,-550.98879459,-1213.7893404000001,248.45257593000002,210.01172556,62.24350205198358,set #1
1970-01-01 00:00:18.609675634,3.7793869972229004,0.26851212978363037,1.4970436096191406,-523.68092166,-473.58316278,-936.35151168,-1535.44998438,-609.3034958400001,-1305.28188492,-570.85608606,-332.36854638,62.38030095759234,set #1
1970-01-01 00:00:18.620000350,3.7824554443359375,0.2613547146320343,1.4969563484191895,25.8177465,-315.767517,-430.6013595,-925.147158,-458.2648785,-1000.7196615,-108.60530849999999,31.600374,62.517099863201096,set #1
1970-01-01 00:00:18.629815090,3.7855522632598877,0.2540275454521179,1.4967410564422607,543.2622039,451.9860423,777.4392054,198.0820023,5.5279925999999975,-635.0983899,460.70035440000004,499.24815720000004,62.653898768809846,set #1
1970-01-01 00:00:18.640119779,3.7886064052581787,0.24658437073230743,1.4965696334838867,-117.76375182000001,-312.43481685,568.4700333000001,-44.22643095,418.44341097,-543.68202174,243.43929285,98.02846092,62.7906976744186,set #1
1970-01-01 00:00:18.649597871,3.7915892601013184,0.23909687995910645,1.4964202642440796,-284.10632835,-251.39788127999998,-1524.4077685200002,-1390.7307141,122.05419954,-616.06473318,-384.55313753999997,-244.66018668,62.92749658002736,set #1
1970-01-01 00:00:18.659653413,3.794490098953247,0.2315748631954193,1.4962663650512695,-1031.80967526,-1042.80102342,-1220.50689267,-1679.6780637,302.79273765,-599.5714888800001,-382.44923145,-345.95554812,63.064295485636116,set #1
1970-01-01 00:00:18.669918525,3.797287940979004,0.2240021675825119,1.4960829019546509,297.993111,233.18219925,225.62975174999997,-346.0165995,-29.208192,-521.62465875,-107.21853675,145.95333675,63.20109439124487,set #1
1970-01-01 00:00:18.679823625,3.7999746799468994,0.21643908321857452,1.4958198070526123,-941.1186525,-894.52881375,-495.97913625,-902.90304,121.54364625,-492.31947375,-308.38396875,-245.54599875,63.33789329685362,set #1
1970-01-01 00:00:18.689887035,3.8025360107421875,0.20891162753105164,1.4955651760101318,784.37949525,434.0140974,1014.75277995,362.2758516,172.22329605000002,-392.20505805,106.70115885,383.5310739,63.47469220246238,set #1
1970-01-01 00:00:18.700079668,3.804965019226074,0.20146508514881134,1.4952954053878784,282.57669024,216.24448560000002,363.22819884,-210.92495268000002,272.6593584,-251.55744276,292.63399308000004,386.54469828,63.611491108071135,set #1
1970-01-01 00:00:18.709886301,3.8072428703308105,0.19408732652664185,1.4950581789016724,-395.05193832000003,-413.91566190000003,-1252.0036276800001,-1354.30816209,242.42402106,-364.49563332,-240.27966378,17.18123355,63.74829001367989,set #1
1970-01-01 00:00:18.720015037,3.8093528747558594,0.1868380755186081,1.4948077201843262,204.46264293,-23.21236905,217.07872134000002,-202.89696336,119.48664156000001,-474.37346970000004,17.731612469999998,125.26166211,63.88508891928864,set #1
1970-01-01 00:00:18.729858863,3.811323404312134,0.17961886525154114,1.494634747505188,-84.69843291000001,-183.77667906000005,-471.0007458,-1007.0807670300001,-201.18965255999998,-665.30504898,-647.3785188,-321.42250881,64.0218878248974,set #1
1970-01-01 00:00:18.739639509,3.8132123947143555,0.17235758900642395,1.4943820238113403,25.18719606,-112.49716569,-777.70179552,-826.91405082,-281.5364682,-605.06802135,-270.1472553,-124.88356608000001,64.15868673050616,set #1
1970-01-01 00:00:18.750508773,3.8149847984313965,0.1652131825685501,1.4942262172698975,1038.58285323,701.25019848,1050.16333968,693.24505302,-844.3089185700001,-761.12605764,126.12040194,254.8683501,64.2954856361149,set #1
1970-01-01 00:00:18.760513294,3.8166842460632324,0.15805257856845856,1.493992805480957,737.90532582,529.59751338,502.33065324,217.87865034,-892.9741337400001,-870.40598034,144.73434612000003,379.37867838,64.43228454172366,set #1
1970-01-01 00:00:18.769609678,3.818307876586914,0.1508904993534088,1.4936572313308716,-1805.54371218,-1729.74546888,-1442.7776524199999,-1964.02299366,-513.92182296,-737.313837,-624.52695942,-329.3737317,64.56908344733242,set #1
1970-01-01 00:00:18.779699075,3.8198719024658203,0.14374659955501556,1.4933650493621826,560.6088832500001,354.2174805,1322.72640825,678.9826680000001,-170.51116875,-352.67359725,7.0596435,144.3685815,64.70588235294117,set #1
1970-01-01 00:00:18.790069807,3.821352958679199,0.13657230138778687,1.4931353330612183,-599.23188702,-426.61195473000004,-534.59681847,-1021.43677818,130.69824924,-205.00078911,-367.29588909,-143.99255442,64.84268125854993,set #1
1970-01-01 00:00:18.800045478,3.822794198989868,0.12933103740215302,1.492824912071228,669.82117644,408.13167954,1426.777716,858.08485854,254.55985854,-18.912182639999997,344.04460661999997,345.26711154000003,64.97948016415869,set #1
1970-01-01 00:00:18.809626329,3.8241665363311768,0.1221134141087532,1.4924715757369995,-372.03195354,-347.13878667,-1152.29804859,-1279.44573666,670.0037880900001,16.68439227,-517.9479310199999,-275.17621404,65.11627906976744,set #1
1970-01-01 00:00:18.819943655,3.825453042984009,0.11491598188877106,1.492058515548706,-711.2652651000001,-661.9516605000001,-186.61383000000006,-535.70269155,376.34542335,80.5102545,-87.26094975000001,336.78092175,65.2530779753762,set #1
1970-01-01 00:00:18.829967487,3.8265984058380127,0.10778406262397766,1.4916296005249023,611.4761468400001,388.02670803,443.84742831,-9.277755240000001,271.38963111,155.22959790000002,120.39759615,268.45023426,65.38987688098496,set #1
1970-01-01 00:00:18.839552629,3.827620267868042,0.10065367817878723,1.491265058517456,-45.836495250000006,-254.91766053,-216.10059198,-573.19710591,85.61540598,79.73447469000001,-218.12287965,-126.71931714000002,65.5266757865937,set #1
1970-01-01 00:00:18.851146448,3.8285505771636963,0.0934896469116211,1.4908998012542725,399.36273312,353.57077392,646.85521056,303.32746704,11.43403248,316.9037664,105.00652031999999,254.70066336000002,65.66347469220246,set #1
1970-01-01 00:00:18.859651077,3.829437017440796,0.0863364189863205,1.4905186891555786,-547.72162926,-412.35083331,-1108.49486514,-991.16487639,474.1752093,640.45681245,-94.06135634999998,181.78562415,65.80027359781121,set #1
1970-01-01 00:00:18.870528209,3.8302628993988037,0.07933583110570908,1.4900919198989868,347.79598113,184.97814269999998,328.97999472000004,68.30434806,1153.96488675,920.36175387,142.90332654,161.56034466,65.93707250341997,set #1
1970-01-01 00:00:18.880129087,3.8310112953186035,0.07242011278867722,1.4896026849746704,905.6267922,602.35235268,-161.21767778999998,-21.251403420000003,368.5967922,529.45573161,-78.55667313000001,92.65423128,66.07387140902873,set #1
1970-01-01 00:00:18.889740217,3.8316495418548584,0.06583040952682495,1.4890868663787842,12.453708540000001,-156.85374042,1401.38037,1064.2308147899998,290.0285427,481.62839127,90.59272638,-0.2687404200000003,66.21067031463748,set #1
1970-01-01 00:00:18.899862516,3.8322033882141113,0.05936364829540253,1.48859441280365,-614.80666104,-792.7493418,-1234.87145496,-1444.3422162000002,21.51678984,200.25994404000002,-673.8726852,-441.383124,66.34746922024624,set #1
1970-01-01 00:00:18.909934986,3.8326566219329834,0.053051188588142395,1.4882076978683472,649.72412622,606.46367652,93.77858022000001,257.40400841999997,-359.50812846,244.34777094,366.62900429999996,379.94518848,66.484268125855,set #1
1970-01-01 00:00:18.919810998,3.833035945892334,0.04685724526643753,1.4878062009811401,-284.37918756,-206.24852586,-744.36963978,-771.6914119200001,-826.8270114000001,-138.14523138,-287.73834882,-133.93942068,66.62106703146375,set #1
1970-01-01 00:00:18.929676521,3.833360433578491,0.04091409221291542,1.4873296022415161,1234.94970612,651.48848388,2824.92255552,2276.92693995,-1264.9060152299999,-245.4134319,667.1330967600001,573.38187543,66.75786593707251,set #1
1970-01-01 00:00:18.939546096,3.8336403369903564,0.0351012647151947,1.4868601560592651,-865.26561888,-714.49870128,-1233.38745504,-1504.6311696,-454.46501568,61.8562776,-519.30884304,-241.0243992,66.89466484268125,set #1
1970-01-01 00:00:18.949839818,3.833865165710449,0.029406610876321793,1.4864270687103271,-356.059353,-317.9258706,-1552.85419224,-1216.39763466,-200.22883919999998,533.3143530000001,-244.77407136,-53.9806137,67.03146374829001,set #1
1970-01-01 00:00:18.959960210,3.8340539932250977,0.023821666836738586,1.4859838485717773,28.572862500000014,-14.336836800000015,32.85731280000002,-87.46765560000001,243.6103371,1586.2646514,-213.18149970000002,-86.6888958,67.16826265389876,set #1
1970-01-01 00:00:18.969411361,3.8342137336730957,0.01818201132118702,1.4854964017868042,265.82389197,202.38294531000003,-980.78765967,-538.53391761,-261.49722417,1036.32732411,-52.957478730000005,29.29356651,67.30506155950752,set #1
1970-01-01 00:00:18.979742992,3.834379196166992,0.012686124071478844,1.4849958419799805,872.88749184,650.97944496,-122.90120544000001,-274.54198512,-329.13255648,604.7731996800001,73.45520832,237.41021616,67.44186046511628,set #1
1970-01-01 00:00:18.990137804,3.8345139026641846,0.0072380849160254,1.484493374824524,678.49724436,552.5950747200001,904.76161776,694.27772544,-434.29676004,265.78226688,553.51776792,433.846686,67.57865937072503,set #1
1970-01-01 00:00:18.999820697,3.8345954418182373,0.001903945580124855,1.4840141534805298,633.75809484,527.81955954,408.89046822,210.57380682000002,-354.15797313,337.46308869,53.67220794,247.21128978000002,67.71545827633379,set #1
1970-01-01 00:00:19.010165679,3.8346431255340576,-0.0033101080916821957,1.4835063219070435,383.27649594,240.74536278,1270.19890647,1088.5338243,-270.21337707000004,1150.14697824,548.70968529,270.79067652000003,67.85225718194255,set #1
1970-01-01 00:00:19.020484674,3.834632396697998,-0.008363630622625351,1.4830896854400635,586.2587296800001,234.01776372,827.4573512400001,536.1923736,65.07693192,779.4336576,427.95244752,359.91313332,67.9890560875513,set #1
1970-01-01 00:00:19.029739130,3.834615707397461,-0.01335084903985262,1.4827067852020264,187.9034976,272.9065872,1362.5833416,947.784318,-124.18960320000001,98.6615799,760.4149995,286.9382256,68.12585499316005,set #1
1970-01-01 00:00:19.040052879,3.834556818008423,-0.01819043792784214,1.4823057651519775,746.47144455,815.54658471,527.92478466,337.24022435999996,-408.98511303,-259.61099073,-40.41312366,308.20402509,68.2626538987688,set #1
1970-01-01 00:00:19.050494659,3.834460973739624,-0.022986551746726036,1.4818700551986694,90.56332076999999,46.477778099999995,1734.0417474900003,1023.2181983399998,-22.71293349,432.87884991,509.63578575,456.57527604,68.39945280437756,set #1
1970-01-01 00:00:19.059827077,3.834362030029297,-0.027706822380423546,1.4814189672470093,-449.49291894,-373.53339543000004,-1636.36614804,-1425.32851422,-317.51855928000003,-606.92207979,-610.38530514,-258.26186217000003,68.53625170998632,set #1
1970-01-01 00:00:19.069661128,3.834243059158325,-0.03233805298805237,1.4810023307800293,760.02745416,598.44336864,836.34980832,721.1843496,-268.97943072,-1195.82994648,236.56973184000003,237.9178464,68.67305061559507,set #1
1970-01-01 00:00:19.079811561,3.8340976238250732,-0.036924976855516434,1.4805476665496826,242.24809518,208.00858845,157.34106414000001,-49.05757389,267.66761736,2621.49350151,-14.377514970000004,235.45785627,68.80984952120383,set #1
1970-01-01 00:00:19.089963424,3.8339216709136963,-0.04137105494737625,1.4800945520401,-826.87797504,-605.39621376,-2409.7408358400003,-2392.85776704,123.29660928,5646.129702720001,-593.42189088,-304.30291008,68.94664842681259,set #1
1970-01-01 00:00:19.099898088,3.8337337970733643,-0.045716531574726105,1.4796183109283447,258.42600264000004,124.50313824,-504.82423991999997,-500.16780528,-256.32567168,1577.6796578400001,-220.76074488,-185.53039439999998,69.08344733242134,set #1
1970-01-01 00:00:19.109513986,3.8335161209106445,-0.0499274805188179,1.4791914224624634,109.15091148,288.26454774,1331.22955134,1084.7795517000002,149.23363572,1874.6849979,25.708637760000002,-9.97772646,69.2202462380301,set #1
1970-01-01 00:00:19.120604980,3.8332886695861816,-0.05415036156773567,1.4787781238555908,-746.75757,-631.354854,-1065.3152874,-1008.1580418,129.8484798,3361.0688514000003,-341.88481859999996,-154.02398699999998,69.35704514363886,set #1
1970-01-01 00:00:19.129789340,3.8330628871917725,-0.05819098278880119,1.4783833026885986,434.5381872,242.6908458,201.159816,141.201762,36.2967228,3781.0559592,78.5236062,114.47882940000001,69.4938440492476,set #1
1970-01-01 00:00:19.139651763,3.8328568935394287,-0.06206073984503746,1.477972388267517,431.47276653,606.78832812,743.3578588800001,454.66124691,-18.833910420000002,873.5639893499999,36.71670717,130.64603136,69.63064295485636,set #1
